,ECG_P_Peaks,ECG_Q_Peaks,ECG_S_Peaks,ECG_T_Peaks,ECG_P_Onsets,ECG_T_Offsets,ECG_Start,ECG_Stop,ECG_R_Peaks
0,"[99, 546, 1013, 1444, 1896, 2325, 2796, 3249, 3629, 4130, 4589]","[147, 605, 1060, 1502, 1962, 2388, 2837, 3307, 3748, 4182, 4647]","[169, 630, 1087, 1524, 1981, 2406, 2862, 3332, 3767, 4209, 4670]","[294, 754, 1216, 1642, 2114, 2531, 2991, 3454, 3894, 4342, 4794]","[72, 534, 993, 1363, 1883, 2282, 2789, 3236, 3621, 4120, 4579]","[326, 778, 1268, 1653, 2139, 2560, 3019, 3479, 3913, 4361, 4819]","[22, 484, 943, 1313, 1833, 2232, 2739, 3186, 3571, 4070, 4529]","[376, 828, 1318, 1703, 2189, 2610, 3069, 3529, 3963, 4411, 4869]","[159, 616, 1076, 1511, 1970, 2396, 2851, 3316, 3757, 4197, 4656]"
1,"[371, 764, 1164, 1592, 2042, 2486, 2936, 3386, 3853, 4289, 4743]","[425, 819, 1220, 1650, 2102, 2544, 2991, 3441, 3899, 4338, 4790]","[474, 883, 1287, 1690, 2152, 2585, 3021, 3519, 3940, 4365, 4854]","[566, 960, 1361, 1790, 2249, 2685, 3139, 3589, 4040, 4477, 4931]","[354, 748, 1144, 1574, 2030, 2474, 2915, 3364, 3828, 4264, 4715]","[601, 991, 1396, 1822, 2276, 2742, 3163, 3618, 4081, 4509, 4985]","[304, 698, 1094, 1524, 1980, 2424, 2865, 3314, 3778, 4214, 4665]","[651, 1041, 1446, 1872, 2326, 2792, 3213, 3668, 4131, 4559, 5035]","[440, 833, 1236, 1668, 2117, 2560, 3007, 3457, 3914, 4356, 4805]"
2,"[381, 754, 1112, 1491, 1864, 2232, 2560, 2932, 3277, 3587, 3931, 4275, 4617]","[420, 788, 1160, 1531, 1908, 2272, 2620, 2971, 3318, 3647, 3978, 4311, 4657]","[456, 827, 1197, 1563, 1937, 2304, 2654, 3006, 3352, 3680, 4016, 4365, 4690]","[548, 913, 1291, 1657, 2030, 2396, 2741, 3099, 3447, 3778, 4106, 4439, 4791]","[370, 686, 1083, 1417, 1822, 2207, 2519, 2847, 3247, 3504, 3833, 4263, 4607]","[587, 962, 1326, 1704, 2087, 2440, 2784, 3144, 3493, 3833, 4166, 4552, 4829]","[320, 636, 1033, 1367, 1772, 2157, 2469, 2797, 3197, 3454, 3783, 4213, 4557]","[637, 1012, 1376, 1754, 2137, 2490, 2834, 3194, 3543, 3883, 4216, 4602, 4879]","[438, 805, 1174, 1548, 1923, 2288, 2636, 2987, 3332, 3664, 3994, 4329, 4673]"
3,"[295, 604, 903, 1209, 1526, 1843, 2154, 2477, 2782, 3100, 3439, 3789, 4121, 4434, 4761]","[353, 637, 958, 1265, 1575, 1898, 2213, 2513, 2834, 3156, 3494, 3833, 4171, 4487, 4812]","[376, 678, 981, 1287, 1597, 1919, 2236, 2548, 2860, 3180, 3517, 3858, 4193, 4517, 4835]","[476, 779, 1085, 1389, 1703, 2024, 2344, 2655, 2965, 3285, 3623, 3963, 4299, 4628, nan]","[220, 519, 822, 1126, 1496, 1833, 2125, 2461, 2758, 3091, 3426, 3767, 4030, 4360, 4742]","[516, 814, 1115, 1422, 1733, 2058, 2372, 2686, 2994, 3316, 3657, 3996, 4336, 4654, nan]","[170, 469, 772, 1076, 1446, 1783, 2075, 2411, 2708, 3041, 3376, 3717, 3980, 4310, 4692]","[566.0, 864.0, 1165.0, 1472.0, 1783.0, 2108.0, 2422.0, 2736.0, 3044.0, 3366.0, 3707.0, 4046.0, 4386.0, 4704.0, nan]","[366, 667, 970, 1276, 1587, 1909, 2226, 2537, 2848, 3168, 3506, 3848, 4182, 4506, 4823]"
4,"[406, 790, 1198, 1598, 1998, 2412, 2820, 3219, 3611, 4013, 4417, 4806]","[461, 859, 1267, 1666, 2046, 2478, 2883, 3253, 3672, 4082, 4486, 4876]","[489, 889, 1296, 1696, 2096, 2509, 2914, 3307, 3710, 4111, 4516, 4900]","[610, 1000, 1422, 1811, 2201, 2640, 3025, 3422, 3826, 4243, 4633, nan]","[383, 765, 1190, 1571, 1990, 2387, 2792, 3188, 3586, 4004, 4386, 4782]","[640, 1009, 1476, 1821, 2265, 2665, 3069, 3455, 3866, 4261, 4643, nan]","[333, 715, 1140, 1521, 1940, 2337, 2742, 3138, 3536, 3954, 4336, 4732]","[690.0, 1059.0, 1526.0, 1871.0, 2315.0, 2715.0, 3119.0, 3505.0, 3916.0, 4311.0, 4693.0, nan]","[473, 874, 1280, 1681, 2079, 2494, 2902, 3296, 3693, 4096, 4500, 4889]"
5,"[373, 775, 1134, 1504, 1915, 2404, 2821, 3313, 3751, 4207, 4655]","[423, 816, 1186, 1557, 1994, 2457, 2935, 3375, 3812, 4260, 4701]","[449, 829, 1198, 1588, 2020, 2481, 2959, 3398, 3841, 4288, 4729]","[584, 981, 1345, 1718, 2155, 2619, 3086, 3524, 3970, 4419, 4868]","[339, 750, 1122, 1456, 1882, 2387, 2807, 3253, 3700, 4198, 4646]","[594, 994, 1392, 1742, 2164, 2654, 3110, 3583, 4006, 4438, 4897]","[289, 700, 1072, 1406, 1832, 2337, 2757, 3203, 3650, 4148, 4596]","[644, 1044, 1442, 1792, 2214, 2704, 3160, 3633, 4056, 4488, 4947]","[436, 826, 1195, 1570, 2004, 2469, 2943, 3384, 3824, 4272, 4716]"
6,"[240, 532, 832, 1129, 1435, 1732, 2025, 2325, 2628, 2920, 3206, 3504, 3800, 4096, 4381, 4673]","[291, 581, 879, 1179, 1483, 1776, 2076, 2376, 2676, 2968, 3258, 3552, 3849, 4146, 4435, 4725]","[318, 612, 908, 1209, 1512, 1806, 2107, 2404, 2706, 2997, 3288, 3583, 3879, 4173, 4466, 4753]","[404, 717, 1008, 1308, 1607, 1902, 2196, 2499, 2800, 3085, 3376, 3679, 3968, 4267, 4553, 4853]","[230, 453, 754, 1110, 1406, 1695, 1976, 2301, 2559, 2858, 3149, 3427, 3785, 4023, 4335, 4656]","[452, 730, 1039, 1343, 1644, 1975, 2230, 2538, 2836, 3126, 3427, 3709, 4023, 4301, 4598, 4877]","[180, 403, 704, 1060, 1356, 1645, 1926, 2251, 2509, 2808, 3099, 3377, 3735, 3973, 4285, 4606]","[502, 780, 1089, 1393, 1694, 2025, 2280, 2588, 2886, 3176, 3477, 3759, 4073, 4351, 4648, 4927]","[304, 596, 892, 1193, 1498, 1790, 2088, 2389, 2690, 2982, 3271, 3568, 3864, 4159, 4448, 4738]"
7,"[368, 736, 1100, 1485, 1865, 2280, 2713, 3126, 3564, 3980, 4405, 4818]","[414, 788, 1155, 1528, 1917, 2332, 2752, 3172, 3599, 4020, 4444, 4853]","[458, 831, 1196, 1571, 1960, 2385, 2787, 3235, 3636, 4055, 4482, 4885]","[539, 911, 1276, 1653, 2035, 2455, 2873, 3300, 3718, 4148, 4561, 4932]","[340, 681, 1091, 1458, 1859, 2264, 2685, 3055, 3532, 3960, 4327, 4782]","[574, 941, 1315, 1682, 2064, 2484, 2925, 3348, 3762, 4194, 4603, 4987]","[290, 631, 1041, 1408, 1809, 2214, 2635, 3005, 3482, 3910, 4277, 4732]","[624, 991, 1365, 1732, 2114, 2534, 2975, 3398, 3812, 4244, 4653, 5037]","[427, 799, 1168, 1541, 1929, 2344, 2766, 3186, 3611, 4033, 4457, 4866]"
8,"[172, 512, 891, 1286, 1480, 2100, 2463, 2845, 3229, 3608, 3999, 4400, 4808]","[186, 535, 946, 1308, 1557, 2116, 2489, 2878, 3248, 3620, 4028, 4422, 4822]","[247, 591, 981, 1375, 1595, 2168, 2540, 2929, 3311, 3690, 4081, 4485, 4887]","[357, 697, 1087, 1480, 1704, 2287, 2646, 3033, 3419, 3796, 4190, 4593, 4899]","[163, 498, 883, 1276, 1443, 2093, 2424, 2837, 3220, 3598, 3990, 4391, 4769]","[391, 738, 1111, 1518, 1744, 2318, 2688, 3058, 3451, 3833, 4217, 4624, 4986]","[113, 448, 833, 1226, 1393, 2043, 2374, 2787, 3170, 3548, 3940, 4341, 4719]","[441, 788, 1161, 1568, 1794, 2368, 2738, 3108, 3501, 3883, 4267, 4674, 5036]","[228, 574, 960, 1353, 1575, 2154, 2521, 2907, 3289, 3669, 4060, 4464, 4871]"
9,"[169, 479, 826, 1199, 1573, 1944, 2327, 2705, 3067, 3441, 3796, 4140, 4470, 4800]","[226, 534, 874, 1246, 1618, 2007, 2386, 2759, 3132, 3502, 3852, 4192, 4498, 4849]","[245, 572, 897, 1282, 1644, 2026, 2405, 2779, 3152, 3520, 3872, 4206, 4543, 4869]","[354, 669, 1002, 1379, 1753, 2141, 2519, 2897, 3264, 3633, 3978, 4325, 4656, 4886]","[82, 387, 800, 1166, 1553, 1931, 2310, 2678, 3050, 3427, 3784, 4122, 4440, 4757]","[386, 696, 1032, 1407, 1789, 2167, 2544, 2921, 3292, 3664, 4020, 4356, 4682, 4983]","[32, 337, 750, 1116, 1503, 1881, 2260, 2628, 3000, 3377, 3734, 4072, 4390, 4707]","[436, 746, 1082, 1457, 1839, 2217, 2594, 2971, 3342, 3714, 4070, 4406, 4732, 5033]","[235, 546, 884, 1257, 1635, 2018, 2397, 2771, 3143, 3512, 3863, 4203, 4534, 4861]"
10,"[383, 880, 1270, 1685, 2121, 2543, 2996, 3392, 3800, 4206, 4694]","[427, 922, 1324, 1726, 2170, 2594, 3025, 3447, 3850, 4240, 4742]","[473, 956, 1347, 1766, 2197, 2628, 3062, 3476, 3878, 4288, 4773]","[591, 1078, 1472, 1885, 2318, 2761, 3180, 3597, 3995, 4408, 4898]","[372, 870, 1260, 1662, 2103, 2525, 2985, 3373, 3787, 4177, 4675]","[625, 1136, 1493, 1918, 2351, 2788, 3226, 3624, 4030, 4434, 4927]","[322, 820, 1210, 1612, 2053, 2475, 2935, 3323, 3737, 4127, 4625]","[675, 1186, 1543, 1968, 2401, 2838, 3276, 3674, 4080, 4484, 4977]","[461, 945, 1337, 1755, 2187, 2618, 3052, 3463, 3866, 4278, 4761]"
11,"[318, 729, 1133, 1544, 1937, 2344, 2730, 3108, 3504, 3888, 4284, 4680]","[354, 777, 1184, 1585, 1981, 2385, 2769, 3159, 3543, 3936, 4336, 4698]","[390, 808, 1225, 1625, 2029, 2425, 2803, 3203, 3587, 3966, 4377, 4743]","[485, 907, 1316, 1717, 2126, 2520, 2898, 3288, 3671, 4072, 4465, 4849]","[285, 699, 1113, 1523, 1928, 2309, 2706, 3097, 3479, 3869, 4274, 4670]","[519, 932, 1359, 1738, 2147, 2562, 2920, 3309, 3710, 4089, 4511, 4889]","[235, 649, 1063, 1473, 1878, 2259, 2656, 3047, 3429, 3819, 4224, 4620]","[569, 982, 1409, 1788, 2197, 2612, 2970, 3359, 3760, 4139, 4561, 4939]","[368, 788, 1199, 1599, 2002, 2397, 2782, 3171, 3556, 3949, 4349, 4732]"
12,"[314, 796, 1299, 1814, 2354, 2889, 3399, 3919, 4447, 4884]","[366, 858, 1351, 1879, 2381, 2940, 3451, 3947, 4500, 4938]","[395, 889, 1380, 1908, 2438, 2971, 3481, 4001, 4529, nan]","[523, 1020, 1510, 2038, 2565, 3100, 3610, 4128, 4653, nan]","[264, 776, 1285, 1805, 2337, 2870, 3365, 3901, 4427, 4795]","[550, 1056, 1537, 2061, 2601, 3132, 3634, 4159, 4686, nan]","[214, 726, 1235, 1755, 2287, 2820, 3315, 3851, 4377, 4745]","[600.0, 1106.0, 1587.0, 2111.0, 2651.0, 3182.0, 3684.0, 4209.0, 4736.0, nan]","[381, 876, 1366, 1895, 2425, 2958, 3469, 3989, 4516, 4942]"
13,"[385, 922, 1436, 1968, 2516, 3053, 3576, 4118, 4672]","[456, 995, 1470, 2040, 2587, 3122, 3647, 4181, 4742]","[480, 1028, 1530, 2069, 2661, 3147, 3671, 4235, 4774]","[604, 1145, 1654, 2188, 2736, 3275, 3797, 4333, 4894]","[366, 905, 1425, 1956, 2500, 3010, 3547, 4088, 4660]","[634, 1176, 1698, 2217, 2768, 3306, 3827, 4361, 4983]","[316, 855, 1375, 1906, 2450, 2960, 3497, 4038, 4610]","[684, 1226, 1748, 2267, 2818, 3356, 3877, 4411, 5033]","[467, 1005, 1518, 2050, 2598, 3135, 3657, 4198, 4754]"
14,"[208, 658, 1108, 1577, 2019, 2490, 2910, 3330, 3733, 4164, 4621]","[252, 700, 1156, 1621, 2083, 2528, 2958, 3374, 3791, 4216, 4667]","[276, 726, 1184, 1647, 2107, 2554, 2981, 3400, 3813, 4241, 4691]","[402, 869, 1317, 1758, 2225, 2672, 3090, 3521, 3938, 4357, 4805]","[184, 628, 1098, 1515, 1985, 2409, 2856, 3306, 3718, 4154, 4605]","[429, 878, 1345, 1767, 2269, 2732, 3138, 3542, 3969, 4408, 4847]","[134, 578, 1048, 1465, 1935, 2359, 2806, 3256, 3668, 4104, 4555]","[479, 928, 1395, 1817, 2319, 2782, 3188, 3592, 4019, 4458, 4897]","[263, 715, 1171, 1635, 2096, 2538, 2970, 3388, 3801, 4229, 4678]"
15,"[128, 459, 822, 1111, 1515, 1961, 2386, 2820, 3214, 3579, 3952, 4314, 4729]","[183, 513, 836, 1173, 1576, 2005, 2456, 2876, 3263, 3594, 4009, 4387, 4795]","[197, 528, 853, 1186, 1581, 2049, 2485, 2900, 3287, 3648, 4025, 4391, 4836]","[302, 632, 954, 1286, 1695, 2138, 2575, 2995, 3392, 3761, 4129, 4504, 4913]","[119, 420, 811, 1094, 1484, 1942, 2369, 2780, 3196, 3560, 3943, 4305, 4714]","[346, 671, 986, 1321, 1725, 2170, 2615, 3031, 3428, 3801, 4161, 4533, 4945]","[69, 370, 761, 1044, 1434, 1892, 2319, 2730, 3146, 3510, 3893, 4255, 4664]","[396, 721, 1036, 1371, 1775, 2220, 2665, 3081, 3478, 3851, 4211, 4583, 4995]","[189, 518, 842, 1178, 1579, 2023, 2463, 2880, 3279, 3646, 4014, 4389, 4801]"
16,"[322, 846, 1403, 1961, 2508, 3071, 3625, 4213, 4758]","[398, 925, 1476, 2042, 2592, 3146, 3714, 4290, 4834]","[428, 956, 1507, 2069, 2622, 3181, 3744, 4321, 4863]","[572, 1100, 1654, 2214, 2758, 3325, 3885, 4465, 4912]","[282, 811, 1327, 1932, 2480, 3047, 3612, 4161, 4734]","[597, 1124, 1689, 2235, 2790, 3342, 3915, 4486, 4981]","[232, 761, 1277, 1882, 2430, 2997, 3562, 4111, 4684]","[647, 1174, 1739, 2285, 2840, 3392, 3965, 4536, 5031]","[408, 939, 1490, 2052, 2602, 3160, 3727, 4301, 4847]"
17,"[410, 921, 1409, 1910, 2427, 2890, 3376, 3824, 4287, 4769]","[447, 943, 1435, 1929, 2441, 2959, 3417, 3861, 4312, 4786]","[473, 984, 1473, 1975, 2487, 2982, 3440, 3883, 4350, 4827]","[590, 1101, 1586, 2090, 2598, 3098, 3557, 4001, 4466, nan]","[333, 883, 1398, 1874, 2397, 2854, 3348, 3803, 4204, 4750]","[615, 1127, 1617, 2119, 2635, 3135, 3594, 4036, 4499, nan]","[283, 833, 1348, 1824, 2347, 2804, 3298, 3753, 4154, 4700]","[665.0, 1177.0, 1667.0, 2169.0, 2685.0, 3185.0, 3644.0, 4086.0, 4549.0, nan]","[461, 973, 1464, 1964, 2475, 2971, 3431, 3872, 4340, 4816]"
18,"[144, 613, 1071, 1535, 2011, 2419, 2881, 3361, 3831, 4238, 4738]","[208, 667, 1095, 1590, 2026, 2486, 2925, 3426, 3848, 4326, 4774]","[239, 694, 1160, 1630, 2079, 2513, 2969, 3455, 3903, 4363, 4830]","[363, 808, 1277, 1739, 2192, 2623, 3093, 3578, 4029, 4488, 4872]","[133, 576, 1047, 1524, 1928, 2409, 2871, 3311, 3753, 4229, 4716]","[413, 862, 1328, 1772, 2233, 2687, 3136, 3648, 4070, 4545, 4984]","[83, 526, 997, 1474, 1878, 2359, 2821, 3261, 3703, 4179, 4666]","[463, 912, 1378, 1822, 2283, 2737, 3186, 3698, 4120, 4595, 5034]","[228, 684, 1149, 1617, 2069, 2503, 2958, 3443, 3890, 4352, 4816]"
19,"[339, 685, 1035, 1422, 1796, 2257, 2670, 3091, 3487, 3855, 4218, 4573, 4780]","[401, 756, 1099, 1488, 1858, 2320, 2752, 3157, 3542, 3912, 4277, 4651, 4877]","[423, 772, 1125, 1508, 1920, 2348, 2773, 3178, 3572, 3949, 4315, 4670, 4912]","[552, 894, 1246, 1632, 2041, 2470, 2890, 3306, 3701, 4066, 4435, 4780, 4933]","[325, 664, 1006, 1411, 1789, 2229, 2659, 3041, 3441, 3832, 4192, 4539, 4779]","[572, 935, 1264, 1655, 2064, 2494, 2925, 3320, 3729, 4077, 4459, 4790, 4987]","[275, 614, 956, 1361, 1739, 2179, 2609, 2991, 3391, 3782, 4142, 4489, 4729]","[622, 985, 1314, 1705, 2114, 2544, 2975, 3370, 3779, 4127, 4509, 4840, 5037]","[416, 764, 1118, 1501, 1913, 2340, 2765, 3170, 3564, 3941, 4307, 4662, 4899]"
20,"[253, 690, 1129, 1572, 2015, 2479, 2936, 3376, 3836, 4267, 4741]","[296, 732, 1170, 1620, 2070, 2528, 2981, 3431, 3879, 4329, 4773]","[375, 768, 1236, 1671, 2120, 2578, 3032, 3492, 3924, 4363, 4822]","[451, 889, 1319, 1777, 2220, 2683, 3126, 3583, 4037, 4487, 4945]","[175, 602, 1079, 1564, 2005, 2465, 2916, 3366, 3817, 4256, 4704]","[501, 924, 1354, 1815, 2282, 2745, 3166, 3620, 4068, 4497, 4984]","[125, 552, 1029, 1514, 1955, 2415, 2866, 3316, 3767, 4206, 4654]","[551, 974, 1404, 1865, 2332, 2795, 3216, 3670, 4118, 4547, 5034]","[314, 751, 1189, 1638, 2089, 2546, 2997, 3450, 3897, 4347, 4791]"
21,"[207, 548, 886, 1236, 1573, 1910, 2266, 2607, 2951, 3286, 3633, 3955, 4264, 4563, 4869]","[257, 595, 935, 1280, 1622, 1962, 2310, 2655, 3000, 3338, 3680, 4003, 4315, 4616, 4918]","[287, 625, 965, 1309, 1652, 1991, 2339, 2683, 3028, 3368, 3710, 4035, 4345, 4647, nan]","[384, 723, 1070, 1408, 1747, 2091, 2443, 2780, 3127, 3473, 3809, 4141, 4442, 4747, nan]","[177, 532, 875, 1219, 1561, 1900, 2243, 2590, 2863, 3276, 3587, 3931, 4180, 4481, 4786]","[437, 756, 1093, 1449, 1789, 2129, 2481, 2863, 3185, 3530, 3852, 4179, 4481, 4786, nan]","[127, 482, 825, 1169, 1511, 1850, 2193, 2540, 2813, 3226, 3537, 3881, 4130, 4431, 4736]","[487.0, 806.0, 1143.0, 1499.0, 1839.0, 2179.0, 2531.0, 2913.0, 3235.0, 3580.0, 3902.0, 4229.0, 4531.0, 4836.0, nan]","[273, 610, 951, 1296, 1638, 1976, 2324, 2670, 3014, 3354, 3695, 4020, 4332, 4632, 4935]"
22,"[272, 628, 983, 1357, 1719, 2094, 2450, 2804, 3164, 3531, 3901, 4265, 4632]","[328, 685, 1042, 1407, 1775, 2144, 2498, 2851, 3209, 3579, 3955, 4322, 4684]","[358, 713, 1075, 1433, 1811, 2181, 2527, 2881, 3244, 3613, 3986, 4361, 4710]","[459, 809, 1172, 1533, 1904, 2266, 2629, 2976, 3340, 3699, 4081, 4449, 4811]","[236, 610, 972, 1337, 1689, 2040, 2433, 2790, 3136, 3489, 3888, 4246, 4598]","[499, 844, 1203, 1567, 1934, 2297, 2659, 3017, 3364, 3746, 4115, 4489, 4847]","[186, 560, 922, 1287, 1639, 1990, 2383, 2740, 3086, 3439, 3838, 4196, 4548]","[549, 894, 1253, 1617, 1984, 2347, 2709, 3067, 3414, 3796, 4165, 4539, 4897]","[340, 698, 1055, 1419, 1787, 2155, 2513, 2862, 3221, 3592, 3967, 4336, 4696]"
23,"[288, 694, 1119, 1521, 1931, 2340, 2716, 3090, 3454, 3656, 4172, 4497, 4700]","[309, 762, 1192, 1543, 1973, 2411, 2754, 3164, 3527, 3718, 4235, 4555, 4758]","[400, 806, 1225, 1614, 2023, 2444, 2823, 3190, 3553, 3862, 4261, 4595, 4934]","[501, 906, 1335, 1718, 2127, 2547, 2930, 3299, 3656, 3910, 4371, 4700, 4941]","[250, 663, 1049, 1484, 1902, 2285, 2703, 3078, 3443, 3609, 4161, 4458, 4654]","[534, 934, 1364, 1752, 2164, 2588, 2954, 3324, 3747, 3980, 4400, 4799, 4982]","[200, 613, 999, 1434, 1852, 2235, 2653, 3028, 3393, 3559, 4111, 4408, 4604]","[584, 984, 1414, 1802, 2214, 2638, 3004, 3374, 3797, 4030, 4450, 4849, 5032]","[382, 788, 1213, 1601, 2009, 2428, 2808, 3177, 3540, 3766, 4247, 4581, 4831]"
24,"[155, 501, 798, 1164, 1549, 1923, 2280, 2640, 3012, 3400, 3798, 4191, 4578]","[224, 570, 870, 1236, 1621, 1992, 2345, 2698, 3080, 3470, 3871, 4262, 4648]","[260, 608, 915, 1280, 1658, 2029, 2403, 2746, 3119, 3521, 3933, 4314, 4687]","[370, 706, 1011, 1381, 1753, 2120, 2478, 2842, 3221, 3600, 4019, 4397, 4784]","[106, 488, 770, 1136, 1536, 1909, 2194, 2619, 2936, 3355, 3736, 4165, 4556]","[390, 770, 1032, 1436, 1818, 2194, 2526, 2873, 3248, 3669, 4095, 4445, 4814]","[56, 438, 720, 1086, 1486, 1859, 2144, 2569, 2886, 3305, 3686, 4115, 4506]","[440, 820, 1082, 1486, 1868, 2244, 2576, 2923, 3298, 3719, 4145, 4495, 4864]","[237, 585, 885, 1249, 1635, 2006, 2359, 2721, 3093, 3484, 3885, 4276, 4662]"
25,"[420, 881, 1307, 1716, 2097, 2497, 2997, 3474, 3929, 4349, 4777]","[461, 916, 1347, 1762, 2144, 2546, 3039, 3517, 3968, 4390, 4824]","[498, 940, 1370, 1786, 2168, 2579, 3072, 3553, 3991, 4414, 4847]","[595, 1053, 1483, 1898, 2280, 2679, 3179, 3653, 4106, 4526, 4856]","[375, 847, 1280, 1700, 2067, 2486, 2965, 3459, 3896, 4318, 4739]","[629, 1085, 1512, 1929, 2311, 2708, 3205, 3683, 4135, 4556, 4984]","[325, 797, 1230, 1650, 2017, 2436, 2915, 3409, 3846, 4268, 4689]","[679, 1135, 1562, 1979, 2361, 2758, 3255, 3733, 4185, 4606, 5034]","[473, 928, 1360, 1774, 2155, 2558, 3051, 3530, 3980, 4402, 4836]"
26,"[160, 569, 1000, 1442, 1886, 2327, 2761, 3197, 3621, 4043, 4469, 4823]","[216, 628, 1056, 1499, 1944, 2374, 2811, 3248, 3686, 4079, 4529, 4895]","[243, 658, 1086, 1526, 1970, 2404, 2842, 3282, 3706, 4126, 4554, 4929]","[369, 783, 1218, 1653, 2095, 2527, 2970, 3406, 3835, 4259, 4679, 4931]","[133, 554, 974, 1417, 1874, 2306, 2746, 3187, 3604, 4028, 4454, 4815]","[401, 802, 1236, 1679, 2129, 2560, 3013, 3430, 3886, 4294, 4724, 4984]","[83, 504, 924, 1367, 1824, 2256, 2696, 3137, 3554, 3978, 4404, 4765]","[451, 852, 1286, 1729, 2179, 2610, 3063, 3480, 3936, 4344, 4774, 5034]","[232, 644, 1073, 1514, 1961, 2391, 2830, 3270, 3698, 4116, 4545, 4903]"
27,"[399, 736, 1064, 1395, 1732, 2047, 2373, 2707, 3034, 3357, 3707, 4029, 4379, 4707]","[455, 795, 1123, 1456, 1780, 2104, 2431, 2761, 3091, 3422, 3754, 4090, 4427, 4768]","[485, 825, 1165, 1483, 1806, 2142, 2481, 2790, 3117, 3456, 3790, 4114, 4452, 4795]","[609, 934, 1257, 1591, 1919, 2249, 2566, 2900, 3234, 3568, 3894, 4239, 4553, 4909]","[370, 673, 1046, 1382, 1725, 2032, 2344, 2637, 3024, 3338, 3643, 3990, 4282, 4691]","[673, 994, 1317, 1625, 1959, 2275, 2637, 2946, 3309, 3643, 3969, 4249, 4601, 4943]","[320, 623, 996, 1332, 1675, 1982, 2294, 2587, 2974, 3288, 3593, 3940, 4232, 4641]","[723, 1044, 1367, 1675, 2009, 2325, 2687, 2996, 3359, 3693, 4019, 4299, 4651, 4993]","[473, 808, 1138, 1469, 1794, 2119, 2445, 2776, 3106, 3435, 3768, 4104, 4439, 4782]"
28,"[489, 943, 1384, 1819, 2239, 2654, 3072, 3481, 3905, 4342, 4765]","[560, 1018, 1458, 1884, 2308, 2725, 3138, 3550, 3976, 4413, 4847]","[590, 1043, 1485, 1912, 2333, 2751, 3165, 3580, 4003, 4439, 4871]","[705, 1156, 1600, 2026, 2450, 2864, 3275, 3694, 4115, 4555, 4880]","[472, 921, 1372, 1803, 2216, 2641, 3047, 3470, 3896, 4327, 4744]","[727, 1185, 1625, 2056, 2480, 2888, 3305, 3722, 4143, 4584, 4985]","[422, 871, 1322, 1753, 2166, 2591, 2997, 3420, 3846, 4277, 4694]","[777, 1235, 1675, 2106, 2530, 2938, 3355, 3772, 4193, 4634, 5035]","[571, 1027, 1468, 1895, 2321, 2736, 3147, 3562, 3986, 4425, 4858]"
29,"[139, 592, 1021, 1453, 1887, 2319, 2754, 3179, 3644, 4074, 4522, 4813]","[191, 642, 1047, 1485, 1945, 2366, 2814, 3250, 3692, 4109, 4573, 4909]","[225, 663, 1099, 1534, 1968, 2405, 2838, 3271, 3715, 4160, 4606, 4918]","[350, 780, 1228, 1662, 2101, 2535, 2964, 3403, 3844, 4285, 4736, 4942]","[102, 557, 959, 1433, 1874, 2255, 2718, 3129, 3575, 4053, 4498, 4787]","[389, 833, 1263, 1687, 2127, 2597, 3016, 3420, 3870, 4317, 4787, 4984]","[52, 507, 909, 1383, 1824, 2205, 2668, 3079, 3525, 4003, 4448, 4737]","[439, 883, 1313, 1737, 2177, 2647, 3066, 3470, 3920, 4367, 4837, 5034]","[214, 654, 1088, 1524, 1958, 2396, 2827, 3261, 3705, 4150, 4595, 4916]"
30,"[101, 472, 879, 1264, 1611, 1974, 2361, 2749, 3119, 3468, 3855, 4222, 4612, 4802]","[146, 534, 926, 1308, 1669, 2035, 2406, 2790, 3166, 3526, 3898, 4280, 4659, 4854]","[178, 569, 957, 1341, 1703, 2066, 2438, 2825, 3196, 3561, 3930, 4315, 4691, 4929]","[287, 684, 1069, 1446, 1810, 2170, 2547, 2931, 3306, 3675, 4043, 4425, 4802, nan]","[-17, 455, 836, 1224, 1573, 1948, 2319, 2720, 3075, 3455, 3817, 4193, 4590, 4762]","[313, 706, 1101, 1476, 1837, 2212, 2577, 2962, 3349, 3693, 4085, 4454, 4833, nan]","[-67, 405, 786, 1174, 1523, 1898, 2269, 2670, 3025, 3405, 3767, 4143, 4540, 4712]","[363.0, 756.0, 1151.0, 1526.0, 1887.0, 2262.0, 2627.0, 3012.0, 3399.0, 3743.0, 4135.0, 4504.0, 4883.0, nan]","[162, 551, 941, 1323, 1685, 2052, 2423, 2809, 3180, 3544, 3915, 4295, 4677, 4926]"
31,"[500, 999, 1415, 1838, 2296, 2750, 3177, 3677, 4154, 4610]","[550, 1049, 1481, 1884, 2347, 2795, 3220, 3710, 4224, 4668]","[595, 1082, 1507, 1915, 2388, 2821, 3256, 3765, 4249, 4719]","[699, 1200, 1620, 2027, 2489, 2929, 3368, 3881, 4365, 4808]","[452, 924, 1371, 1810, 2283, 2709, 3101, 3601, 4126, 4558]","[766, 1223, 1654, 2060, 2525, 2960, 3403, 3902, 4396, 4836]","[402, 874, 1321, 1760, 2233, 2659, 3051, 3551, 4076, 4508]","[816, 1273, 1704, 2110, 2575, 3010, 3453, 3952, 4446, 4886]","[566, 1068, 1492, 1899, 2362, 2809, 3243, 3749, 4233, 4680]"
32,"[190, 531, 870, 1212, 1542, 1862, 2200, 2522, 2841, 3165, 3486, 3806, 4136, 4457, 4772]","[237, 588, 930, 1259, 1597, 1919, 2255, 2545, 2900, 3208, 3494, 3866, 4179, 4463, 4814]","[260, 605, 949, 1283, 1613, 1945, 2274, 2594, 2917, 3240, 3562, 3880, 4208, 4529, 4850]","[372, 722, 1067, 1390, 1722, 2064, 2380, 2707, 3021, 3349, 3668, 3986, 4322, 4635, nan]","[165, 509, 847, 1184, 1511, 1848, 2177, 2490, 2826, 3129, 3470, 3792, 4115, 4447, 4748]","[400, 737, 1090, 1404, 1757, 2084, 2409, 2732, 3053, 3375, 3695, 4017, 4343, 4672, nan]","[115, 459, 797, 1134, 1461, 1798, 2127, 2440, 2776, 3079, 3420, 3742, 4065, 4397, 4698]","[450.0, 787.0, 1140.0, 1454.0, 1807.0, 2134.0, 2459.0, 2782.0, 3103.0, 3425.0, 3745.0, 4067.0, 4393.0, 4722.0, nan]","[253, 594, 938, 1273, 1602, 1935, 2263, 2583, 2906, 3230, 3551, 3874, 4197, 4518, 4840]"
33,"[442, 911, 1433, 1918, 2421, 2869, 3359, 3846, 4332, 4821]","[479, 968, 1455, 1944, 2437, 2930, 3417, 3904, 4393, 4879]","[506, 995, 1481, 1971, 2464, 2957, 3446, 3932, 4422, 4906]","[624, 1114, 1594, 2087, 2584, 3073, 3562, 4045, 4535, 4918]","[328, 858, 1422, 1905, 2410, 2853, 3301, 3748, 4287, 4776]","[654, 1142, 1623, 2113, 2610, 3101, 3582, 4080, 4566, 4983]","[278, 808, 1372, 1855, 2360, 2803, 3251, 3698, 4237, 4726]","[704, 1192, 1673, 2163, 2660, 3151, 3632, 4130, 4616, 5033]","[490, 980, 1466, 1956, 2449, 2942, 3429, 3917, 4405, 4892]"
34,"[385, 941, 1490, 2040, 2562, 3130, 3655, 4212, 4747]","[414, 979, 1547, 2073, 2622, 3157, 3723, 4261, 4810]","[479, 1020, 1572, 2120, 2652, 3200, 3761, 4288, 4837]","[610, 1146, 1699, 2260, 2778, 3328, 3883, 4402, 4857]","[371, 923, 1475, 2026, 2550, 3032, 3558, 4176, 4685]","[630, 1211, 1735, 2276, 2803, 3372, 3903, 4439, 4980]","[321, 873, 1425, 1976, 2500, 2982, 3508, 4126, 4635]","[680, 1261, 1785, 2326, 2853, 3422, 3953, 4489, 5030]","[466, 1010, 1562, 2118, 2639, 3188, 3740, 4277, 4825]"
35,"[180, 627, 938, 1377, 1713, 2152, 2585, 2990, 3382, 3788, 4234, 4633]","[257, 647, 1033, 1426, 1832, 2230, 2632, 3036, 3477, 3880, 4281, 4682]","[327, 679, 1057, 1482, 1870, 2265, 2654, 3078, 3508, 3912, 4304, 4704]","[393, 792, 1171, 1555, 1963, 2376, 2766, 3176, 3613, 4012, 4416, 4826]","[134, 608, 924, 1367, 1712, 2124, 2533, 2982, 3375, 3764, 4223, 4615]","[432, 820, 1211, 1589, 2009, 2416, 2825, 3235, 3669, 4022, 4436, 4862]","[84, 558, 874, 1317, 1662, 2074, 2483, 2932, 3325, 3714, 4173, 4565]","[482, 870, 1261, 1639, 2059, 2466, 2875, 3285, 3719, 4072, 4486, 4912]","[269, 663, 1049, 1439, 1844, 2245, 2646, 3051, 3492, 3893, 4295, 4698]"
36,"[158, 512, 862, 1203, 1540, 1884, 2222, 2555, 2881, 3215, 3544, 3885, 4235, 4576, 4756]","[206, 557, 890, 1248, 1587, 1928, 2269, 2592, 2918, 3252, 3586, 3931, 4264, 4622, 4888]","[226, 581, 933, 1270, 1608, 1948, 2292, 2617, 2939, 3271, 3611, 3953, 4301, 4645, 4909]","[334, 694, 1038, 1378, 1716, 2057, 2397, 2723, 3045, 3394, 3727, 4065, 4411, 4756, 4926]","[125, 495, 834, 1122, 1517, 1857, 2179, 2524, 2848, 3179, 3535, 3858, 4202, 4550, 4738]","[367, 721, 1074, 1418, 1755, 2094, 2433, 2768, 3098, 3412, 3753, 4096, 4443, 4791, 4985]","[75, 445, 784, 1072, 1467, 1807, 2129, 2474, 2798, 3129, 3485, 3808, 4152, 4500, 4688]","[417, 771, 1124, 1468, 1805, 2144, 2483, 2818, 3148, 3462, 3803, 4146, 4493, 4841, 5035]","[220, 573, 923, 1262, 1601, 1940, 2282, 2606, 2931, 3262, 3602, 3945, 4292, 4635, 4903]"
37,"[474, 1049, 1603, 1981, 2559, 3156, 3783, 4383, 4879]","[523, 1093, 1653, 2126, 2613, 3200, 3836, 4439, 4931]","[553, 1118, 1683, 2154, 2643, 3228, 3866, 4468, 4938]","[705, 1267, 1821, 2297, 2795, 3386, 4009, 4621, nan]","[377, 1009, 1550, 1957, 2504, 3051, 3670, 4362, 4837]","[761, 1329, 1866, 2331, 2819, 3411, 4052, 4656, nan]","[327, 959, 1500, 1907, 2454, 3001, 3620, 4312, 4787]","[811.0, 1379.0, 1916.0, 2381.0, 2869.0, 3461.0, 4102.0, 4706.0, nan]","[539, 1108, 1669, 2140, 2630, 3216, 3850, 4454, 4936]"
38,"[322, 767, 1220, 1651, 2100, 2551, 3006, 3451, 3892, 4351, 4811]","[355, 816, 1252, 1693, 2148, 2599, 3040, 3487, 3941, 4401, 4841]","[395, 854, 1286, 1732, 2186, 2635, 3077, 3520, 3981, 4440, 4880]","[503, 965, 1400, 1844, 2295, 2754, 3191, 3631, 4105, 4551, 4893]","[297, 756, 1211, 1643, 2090, 2540, 2913, 3423, 3873, 4334, 4785]","[536, 1009, 1437, 1880, 2332, 2779, 3223, 3669, 4126, 4583, 4985]","[247, 706, 1161, 1593, 2040, 2490, 2863, 3373, 3823, 4284, 4735]","[586, 1059, 1487, 1930, 2382, 2829, 3273, 3719, 4176, 4633, 5035]","[374, 833, 1270, 1714, 2166, 2616, 3059, 3502, 3960, 4419, 4862]"
39,"[424, 918, 1389, 1869, 2375, 2863, 3358, 3847, 4307, 4777]","[493, 968, 1435, 1925, 2418, 2919, 3411, 3903, 4366, 4812]","[517, 992, 1470, 1948, 2455, 2941, 3434, 3928, 4387, 4856]","[637, 1110, 1589, 2069, 2576, 3053, 3549, 4048, 4503, 4865]","[414, 906, 1360, 1806, 2301, 2832, 3310, 3824, 4285, 4728]","[651, 1142, 1617, 2096, 2619, 3089, 3585, 4085, 4534, 4984]","[364, 856, 1310, 1756, 2251, 2782, 3260, 3774, 4235, 4678]","[701, 1192, 1667, 2146, 2669, 3139, 3635, 4135, 4584, 5034]","[507, 982, 1462, 1940, 2446, 2931, 3427, 3920, 4377, 4846]"
40,"[123, 621, 1125, 1590, 2042, 2490, 2960, 3434, 3901, 4388, 4875]","[166, 669, 1157, 1627, 2079, 2532, 2998, 3469, 3944, 4432, 4909]","[189, 689, 1180, 1657, 2107, 2555, 3024, 3492, 3966, 4456, 4929]","[313, 819, 1312, 1782, 2236, 2683, 3157, 3624, 4095, 4584, 4931]","[58, 612, 1106, 1582, 1963, 2467, 2901, 3407, 3891, 4322, 4865]","[397, 852, 1338, 1808, 2259, 2719, 3181, 3648, 4128, 4617, 4985]","[8, 562, 1056, 1532, 1913, 2417, 2851, 3357, 3841, 4272, 4815]","[447, 902, 1388, 1858, 2309, 2769, 3231, 3698, 4178, 4667, 5035]","[176, 680, 1167, 1644, 2095, 2545, 3009, 3480, 3956, 4444, 4919]"
41,"[145, 578, 1016, 1437, 1853, 2285, 2716, 3144, 3577, 4016, 4435, 4846]","[220, 614, 1093, 1498, 1930, 2361, 2791, 3220, 3654, 4090, 4509, 4921]","[244, 680, 1117, 1536, 1954, 2384, 2815, 3242, 3678, 4114, 4533, nan]","[368, 803, 1245, 1661, 2081, 2514, 2942, 3373, 3805, 4239, 4656, nan]","[126, 557, 990, 1401, 1826, 2267, 2706, 3135, 3550, 3991, 4425, 4831]","[396, 844, 1270, 1682, 2113, 2539, 2979, 3397, 3837, 4274, 4698, nan]","[76, 507, 940, 1351, 1776, 2217, 2656, 3085, 3500, 3941, 4375, 4781]","[446.0, 894.0, 1320.0, 1732.0, 2163.0, 2589.0, 3029.0, 3447.0, 3887.0, 4324.0, 4748.0, nan]","[234, 669, 1108, 1529, 1945, 2376, 2806, 3234, 3668, 4104, 4524, 4936]"
42,"[247, 564, 888, 1205, 1527, 1846, 2175, 2501, 2822, 3136, 3456, 3779, 4108, 4424, 4749]","[298, 618, 941, 1262, 1584, 1907, 2232, 2556, 2877, 3195, 3515, 3836, 4158, 4482, 4801]","[348, 680, 1000, 1303, 1620, 1959, 2270, 2595, 2919, 3236, 3569, 3889, 4204, 4528, 4847]","[424, 745, 1059, 1395, 1709, 2019, 2359, 2681, 2998, 3337, 3647, 3963, 4275, 4610, 4926]","[227, 543, 876, 1197, 1517, 1836, 2165, 2479, 2808, 3122, 3384, 3770, 4031, 4414, 4738]","[466, 778, 1104, 1421, 1743, 2097, 2393, 2712, 3033, 3349, 3676, 4031, 4319, 4659, 4985]","[177, 493, 826, 1147, 1467, 1786, 2115, 2429, 2758, 3072, 3334, 3720, 3981, 4364, 4688]","[516, 828, 1154, 1471, 1793, 2147, 2443, 2762, 3083, 3399, 3726, 4081, 4369, 4709, 5035]","[311, 630, 954, 1275, 1597, 1919, 2245, 2568, 2888, 3209, 3527, 3848, 4170, 4495, 4817]"
43,"[383, 822, 1232, 1645, 2066, 2474, 2864, 3265, 3676, 4107, 4533]","[448, 882, 1295, 1712, 2123, 2523, 2903, 3326, 3742, 4171, 4595]","[473, 906, 1316, 1736, 2148, 2556, 2950, 3348, 3763, 4196, 4621]","[597, 1033, 1444, 1862, 2279, 2677, 3081, 3478, 3890, 4325, 4753]","[375, 801, 1217, 1632, 2043, 2447, 2839, 3236, 3652, 4061, 4512]","[636, 1058, 1476, 1891, 2301, 2712, 3104, 3512, 3913, 4374, 4778]","[325, 751, 1167, 1582, 1993, 2397, 2789, 3186, 3602, 4011, 4462]","[686, 1108, 1526, 1941, 2351, 2762, 3154, 3562, 3963, 4424, 4828]","[462, 896, 1307, 1725, 2138, 2546, 2941, 3338, 3754, 4187, 4611]"
44,"[263, 752, 1259, 1735, 2214, 2687, 3144, 3625, 4107, 4544, 4873]","[309, 815, 1311, 1777, 2274, 2754, 3216, 3689, 4161, 4599, 4905]","[336, 844, 1342, 1816, 2303, 2784, 3246, 3718, 4189, 4626, 4910]","[461, 970, 1479, 1941, 2434, 2915, 3373, 3855, 4319, 4759, 4927]","[176, 718, 1193, 1673, 2176, 2675, 3086, 3591, 4035, 4511, 4784]","[507, 1000, 1504, 1986, 2463, 2952, 3407, 3871, 4349, 4784, 4984]","[126, 668, 1143, 1623, 2126, 2625, 3036, 3541, 3985, 4461, 4734]","[557, 1050, 1554, 2036, 2513, 3002, 3457, 3921, 4399, 4834, 5034]","[324, 832, 1329, 1804, 2289, 2771, 3235, 3706, 4174, 4613, 4908]"
45,"[291, 608, 913, 1233, 1570, 1883, 2152, 2582, 2912, 3179, 3532, 3839, 4172, 4512, 4831]","[343, 656, 981, 1297, 1626, 1938, 2267, 2594, 2931, 3257, 3579, 3908, 4244, 4568, 4891]","[367, 681, 1001, 1322, 1644, 1962, 2308, 2629, 2955, 3284, 3600, 3933, 4297, 4592, 4922]","[479, 772, 1113, 1401, 1750, 2086, 2371, 2718, 3054, 3394, 3725, 4034, 4360, 4687, nan]","[271, 601, 894, 1158, 1559, 1843, 2144, 2575, 2905, 3130, 3511, 3800, 4162, 4462, 4812]","[509, 823, 1130, 1432, 1781, 2107, 2401, 2728, 3130, 3428, 3800, 4044, 4456, 4697, nan]","[221, 551, 844, 1108, 1509, 1793, 2094, 2525, 2855, 3080, 3461, 3750, 4112, 4412, 4762]","[559.0, 873.0, 1180.0, 1482.0, 1831.0, 2157.0, 2451.0, 2778.0, 3180.0, 3478.0, 3850.0, 4094.0, 4506.0, 4747.0, nan]","[357, 673, 992, 1312, 1634, 1954, 2279, 2608, 2944, 3273, 3598, 3922, 4256, 4582, 4903]"
46,"[222, 613, 960, 1372, 1800, 2236, 2687, 3140, 3577, 4007, 4423, 4859]","[294, 660, 1038, 1429, 1852, 2292, 2739, 3190, 3631, 4056, 4474, 4904]","[332, 695, 1075, 1482, 1899, 2327, 2780, 3252, 3703, 4110, 4520, nan]","[446, 808, 1192, 1577, 1999, 2446, 2894, 3347, 3779, 4205, 4625, nan]","[182, 588, 926, 1356, 1774, 2227, 2632, 3062, 3552, 3978, 4362, 4834]","[480, 838, 1221, 1608, 2037, 2467, 2923, 3374, 3809, 4238, 4653, nan]","[132, 538, 876, 1306, 1724, 2177, 2582, 3012, 3502, 3928, 4312, 4784]","[530.0, 888.0, 1271.0, 1658.0, 2087.0, 2517.0, 2973.0, 3424.0, 3859.0, 4288.0, 4703.0, nan]","[308, 675, 1052, 1445, 1866, 2307, 2753, 3205, 3645, 4072, 4488, 4918]"
47,"[256, 814, 1323, 1780, 2299, 2819, 3310, 3832, 4342, 4790]","[305, 861, 1367, 1822, 2339, 2870, 3355, 3881, 4393, 4837]","[329, 886, 1385, 1841, 2365, 2891, 3380, 3905, 4415, 4861]","[457, 1019, 1523, 1977, 2499, 3025, 3512, 4036, 4543, 4873]","[242, 783, 1304, 1747, 2259, 2804, 3295, 3815, 4292, 4770]","[492, 1059, 1558, 2004, 2521, 3065, 3538, 4058, 4579, 4983]","[192, 733, 1254, 1697, 2209, 2754, 3245, 3765, 4242, 4720]","[542, 1109, 1608, 2054, 2571, 3115, 3588, 4108, 4629, 5033]","[318, 875, 1381, 1830, 2353, 2880, 3369, 3891, 4402, 4849]"
48,"[421, 814, 1225, 1633, 2021, 2439, 2859, 3279, 3682, 4093, 4535]","[482, 878, 1291, 1683, 2084, 2505, 2926, 3342, 3716, 4167, 4601]","[509, 907, 1319, 1719, 2122, 2534, 2952, 3370, 3788, 4195, 4630]","[619, 1024, 1425, 1837, 2223, 2636, 3058, 3473, 3883, 4303, 4729]","[413, 796, 1202, 1607, 2013, 2417, 2843, 3271, 3637, 4058, 4515]","[652, 1049, 1456, 1863, 2266, 2677, 3098, 3511, 3920, 4335, 4767]","[363, 746, 1152, 1557, 1963, 2367, 2793, 3221, 3587, 4008, 4465]","[702, 1099, 1506, 1913, 2316, 2727, 3148, 3561, 3970, 4385, 4817]","[493, 891, 1303, 1704, 2105, 2517, 2938, 3354, 3765, 4179, 4613]"
49,"[320, 634, 965, 1317, 1676, 2057, 2424, 2796, 3167, 3531, 3895, 4264, 4543]","[367, 661, 1012, 1354, 1692, 2092, 2469, 2838, 3188, 3567, 3930, 4293, 4654]","[393, 714, 1038, 1380, 1744, 2128, 2496, 2870, 3229, 3593, 3957, 4329, 4684]","[495, 819, 1143, 1489, 1848, 2227, 2603, 2969, 3332, 3695, 4069, 4428, 4786]","[253, 620, 883, 1302, 1602, 1985, 2395, 2769, 3135, 3487, 3880, 4247, 4510]","[523, 852, 1168, 1509, 1868, 2276, 2628, 3001, 3364, 3727, 4093, 4467, 4821]","[203, 570, 833, 1252, 1552, 1935, 2345, 2719, 3085, 3437, 3830, 4197, 4460]","[573, 902, 1218, 1559, 1918, 2326, 2678, 3051, 3414, 3777, 4143, 4517, 4871]","[382, 702, 1028, 1370, 1731, 2112, 2484, 2855, 3220, 3583, 3947, 4313, 4669]"
50,"[103, 485, 851, 1251, 1676, 2102, 2520, 2910, 3292, 3695, 4112, 4534, 4920]","[151, 535, 899, 1302, 1725, 2146, 2561, 2956, 3341, 3743, 4152, 4578, 4929]","[178, 560, 926, 1327, 1753, 2171, 2587, 2982, 3366, 3769, 4178, 4605, 4948]","[312, 695, 1057, 1460, 1891, 2304, 2717, 3113, 3501, 3901, 4305, 4740, nan]","[82, 459, 839, 1231, 1655, 2084, 2504, 2886, 3271, 3683, 4100, 4508, 4911]","[338, 723, 1094, 1487, 1915, 2331, 2743, 3148, 3527, 3932, 4342, 4762, nan]","[32, 409, 789, 1181, 1605, 2034, 2454, 2836, 3221, 3633, 4050, 4458, 4861]","[388.0, 773.0, 1144.0, 1537.0, 1965.0, 2381.0, 2793.0, 3198.0, 3577.0, 3982.0, 4392.0, 4812.0, nan]","[164, 547, 913, 1314, 1738, 2158, 2572, 2967, 3353, 3756, 4165, 4592, 4945]"
51,"[193, 495, 800, 1106, 1389, 1753, 2066, 2380, 2684, 2984, 3296, 3581, 3965, 4283, 4599, 4757]","[234, 537, 848, 1140, 1411, 1788, 2108, 2412, 2712, 3029, 3333, 3599, 4010, 4327, 4623, 4888]","[292, 586, 907, 1208, 1437, 1825, 2163, 2455, 2755, 3056, 3386, 3626, 4036, 4370, 4678, 4911]","[350, 656, 963, 1265, 1518, 1917, 2230, 2543, 2843, 3145, 3459, 3706, 4129, 4445, 4757, 4915]","[163, 472, 778, 1078, 1293, 1735, 2057, 2369, 2674, 2974, 3272, 3489, 3952, 4266, 4590, 4752]","[381, 688, 993, 1293, 1546, 1947, 2272, 2578, 2889, 3181, 3489, 3745, 4160, 4476, 4788, 4984]","[113, 422, 728, 1028, 1243, 1685, 2007, 2319, 2624, 2924, 3222, 3439, 3902, 4216, 4540, 4702]","[431, 738, 1043, 1343, 1596, 1997, 2322, 2628, 2939, 3231, 3539, 3795, 4210, 4526, 4838, 5034]","[248, 555, 859, 1163, 1430, 1813, 2129, 2443, 2744, 3044, 3350, 3618, 4023, 4345, 4656, 4902]"
52,"[364, 768, 1213, 1644, 2055, 2503, 2906, 3304, 3703, 4175, 4630]","[407, 815, 1260, 1688, 2102, 2540, 2947, 3349, 3752, 4210, 4669]","[430, 837, 1284, 1714, 2129, 2572, 2970, 3375, 3776, 4238, 4693]","[539, 946, 1390, 1823, 2238, 2681, 3083, 3473, 3882, 4353, 4802]","[312, 758, 1178, 1605, 2042, 2490, 2891, 3242, 3695, 4160, 4596]","[572, 973, 1420, 1850, 2266, 2708, 3114, 3507, 3915, 4378, 4886]","[262, 708, 1128, 1555, 1992, 2440, 2841, 3192, 3645, 4110, 4546]","[622, 1023, 1470, 1900, 2316, 2758, 3164, 3557, 3965, 4428, 4936]","[421, 826, 1272, 1701, 2115, 2559, 2960, 3360, 3764, 4227, 4681]"
53,"[272, 767, 1250, 1749, 1983, 2226, 2707, 3195, 3696, 4156, 4659]","[325, 830, 1310, 1801, 2078, 2281, 2773, 3267, 3743, 4224, 4724]","[360, 855, 1340, 1840, 2085, 2318, 2795, 3297, 3775, 4253, 4747]","[498, 1005, 1483, 1983, 2226, 2468, 2936, 3441, 3917, 4397, 4888]","[242, 743, 1193, 1687, 1964, 2173, 2662, 3182, 3647, 4116, 4603]","[538, 1034, 1506, 2025, 2290, 2483, 2968, 3491, 3946, 4410, 4921]","[192, 693, 1143, 1637, 1914, 2123, 2612, 3132, 3597, 4066, 4553]","[588, 1084, 1556, 2075, 2340, 2533, 3018, 3541, 3996, 4460, 4971]","[351, 846, 1332, 1828, 2083, 2309, 2787, 3285, 3766, 4243, 4738]"
54,"[225, 694, 1147, 1588, 2065, 2520, 2731, 3007, 3539, 4060, 4576]","[282, 744, 1203, 1650, 2129, 2582, 2868, 3073, 3588, 4116, 4625]","[309, 775, 1243, 1690, 2165, 2622, 2874, 3115, 3625, 4143, 4656]","[431, 894, 1361, 1807, 2287, 2731, 3007, 3228, 3749, 4264, 4782]","[157, 662, 1103, 1528, 2005, 2506, 2721, 2949, 3508, 4023, 4563]","[461, 937, 1381, 1829, 2306, 2774, 3073, 3261, 3777, 4300, 4817]","[107, 612, 1053, 1478, 1955, 2456, 2671, 2899, 3458, 3973, 4513]","[511, 987, 1431, 1879, 2356, 2824, 3123, 3311, 3827, 4350, 4867]","[298, 758, 1218, 1669, 2142, 2598, 2870, 3086, 3605, 4130, 4642]"
55,"[304, 679, 1050, 1427, 1798, 2163, 2537, 2893, 3288, 3467, 4024, 4393, 4748]","[356, 732, 1105, 1478, 1849, 2202, 2584, 2948, 3323, 3507, 4072, 4436, 4791]","[385, 760, 1132, 1506, 1879, 2245, 2613, 2983, 3350, 3554, 4102, 4466, 4813]","[506, 874, 1247, 1624, 1998, 2357, 2731, 3099, 3467, 3674, 4231, 4572, 4923]","[282, 660, 1028, 1405, 1780, 2145, 2512, 2864, 3247, 3358, 4004, 4362, 4707]","[533, 915, 1281, 1657, 2034, 2396, 2762, 3128, 3557, 3707, 4312, 4624, 4982]","[232, 610, 978, 1355, 1730, 2095, 2462, 2814, 3197, 3308, 3954, 4312, 4657]","[583, 965, 1331, 1707, 2084, 2446, 2812, 3178, 3607, 3757, 4362, 4674, 5032]","[374, 750, 1122, 1496, 1869, 2235, 2602, 2972, 3340, 3533, 4092, 4455, 4802]"
56,"[209, 537, 876, 1203, 1529, 1853, 2179, 2522, 2868, 3208, 3545, 3900, 4263, 4617]","[254, 594, 930, 1258, 1585, 1911, 2241, 2579, 2926, 3267, 3608, 3960, 4319, 4680]","[283, 619, 955, 1282, 1609, 1935, 2265, 2603, 2950, 3292, 3631, 3986, 4346, 4706]","[389, 723, 1053, 1387, 1714, 2031, 2364, 2707, 3054, 3400, 3739, 4088, 4445, 4808]","[114, 445, 845, 1157, 1477, 1817, 2152, 2506, 2811, 3128, 3502, 3825, 4187, 4586]","[411, 753, 1084, 1411, 1746, 2064, 2399, 2747, 3078, 3428, 3825, 4119, 4478, 4845]","[64, 395, 795, 1107, 1427, 1767, 2102, 2456, 2761, 3078, 3452, 3775, 4137, 4536]","[461, 803, 1134, 1461, 1796, 2114, 2449, 2797, 3128, 3478, 3875, 4169, 4528, 4895]","[272, 607, 943, 1271, 1597, 1923, 2253, 2592, 2940, 3280, 3619, 3972, 4333, 4693]"
57,"[365, 786, 1230, 1656, 2099, 2531, 2979, 3421, 3845, 4287, 4707]","[401, 842, 1271, 1689, 2143, 2566, 3017, 3468, 3884, 4344, 4760]","[442, 893, 1319, 1750, 2181, 2624, 3074, 3508, 3940, 4403, 4802]","[555, 985, 1429, 1863, 2291, 2729, 3183, 3613, 4056, 4486, 4909]","[335, 759, 1201, 1629, 2065, 2509, 2958, 3384, 3794, 4229, 4695]","[589, 1035, 1506, 1882, 2315, 2765, 3229, 3654, 4075, 4523, 4985]","[285, 709, 1151, 1579, 2015, 2459, 2908, 3334, 3744, 4179, 4645]","[639, 1085, 1556, 1932, 2365, 2815, 3279, 3704, 4125, 4573, 5035]","[425, 859, 1301, 1730, 2157, 2604, 3055, 3490, 3922, 4360, 4784]"
58,"[498, 915, 1342, 1744, 2164, 2623, 3027, 3455, 3929, 4284, 4694]","[550, 970, 1401, 1801, 2245, 2676, 3086, 3507, 3935, 4341, 4738]","[580, 1004, 1428, 1842, 2275, 2702, 3115, 3534, 3961, 4370, 4778]","[689, 1113, 1525, 1946, 2380, 2812, 3221, 3641, 4057, 4469, 4886]","[443, 900, 1298, 1721, 2149, 2605, 2985, 3391, 3908, 4268, 4639]","[749, 1136, 1602, 2016, 2414, 2851, 3236, 3673, 4103, 4502, 4913]","[393, 850, 1248, 1671, 2099, 2555, 2935, 3341, 3858, 4218, 4589]","[799, 1186, 1652, 2066, 2464, 2901, 3286, 3723, 4153, 4552, 4963]","[567, 995, 1414, 1830, 2260, 2691, 3101, 3523, 3948, 4355, 4766]"
59,"[352, 742, 1105, 1456, 1828, 2211, 2609, 3034, 3474, 3896, 4282, 4652]","[395, 784, 1150, 1505, 1873, 2253, 2651, 3061, 3515, 3936, 4324, 4695]","[419, 810, 1178, 1530, 1900, 2284, 2675, 3100, 3543, 3963, 4349, 4721]","[545, 931, 1298, 1647, 2018, 2403, 2797, 3217, 3666, 4087, 4473, 4839]","[345, 731, 1097, 1448, 1820, 2202, 2535, 3003, 3466, 3883, 4275, 4643]","[562, 964, 1329, 1672, 2046, 2430, 2819, 3243, 3699, 4118, 4491, 4864]","[295, 681, 1047, 1398, 1770, 2152, 2485, 2953, 3416, 3833, 4225, 4593]","[612, 1014, 1379, 1722, 2096, 2480, 2869, 3293, 3749, 4168, 4541, 4914]","[409, 799, 1166, 1519, 1890, 2273, 2664, 3088, 3532, 3951, 4338, 4708]"
60,"[207, 637, 1068, 1495, 1905, 2343, 2750, 3182, 3601, 4019, 4455, 4865]","[239, 669, 1093, 1530, 1956, 2378, 2797, 3215, 3637, 4062, 4487, 4910]","[285, 702, 1137, 1563, 1996, 2424, 2852, 3255, 3679, 4106, 4526, nan]","[384, 811, 1248, 1667, 2105, 2529, 2949, 3363, 3783, 4211, 4634, nan]","[200, 611, 1014, 1477, 1837, 2302, 2709, 3167, 3578, 3980, 4447, 4839]","[418, 842, 1273, 1696, 2150, 2558, 2966, 3390, 3818, 4241, 4677, nan]","[150, 561, 964, 1427, 1787, 2252, 2659, 3117, 3528, 3930, 4397, 4789]","[468.0, 892.0, 1323.0, 1746.0, 2200.0, 2608.0, 3016.0, 3440.0, 3868.0, 4291.0, 4727.0, nan]","[251, 681, 1111, 1543, 1969, 2389, 2809, 3227, 3650, 4074, 4498, 4925]"
61,"[319, 798, 1260, 1812, 2334, 2798, 3295, 3789, 4226, 4696]","[365, 857, 1320, 1877, 2392, 2862, 3356, 3845, 4263, 4726]","[404, 883, 1348, 1901, 2419, 2887, 3380, 3873, 4311, 4783]","[530, 1008, 1473, 2023, 2550, 3018, 3503, 4002, 4437, 4918]","[299, 774, 1244, 1794, 2316, 2780, 3273, 3699, 4200, 4683]","[562, 1052, 1512, 2054, 2633, 3056, 3577, 4042, 4481, 4982]","[249, 724, 1194, 1744, 2266, 2730, 3223, 3649, 4150, 4633]","[612, 1102, 1562, 2104, 2683, 3106, 3627, 4092, 4531, 5032]","[393, 871, 1334, 1888, 2405, 2874, 3367, 3859, 4297, 4771]"
62,"[324, 827, 1331, 1806, 2287, 2775, 3289, 3764, 4231, 4641]","[369, 875, 1339, 1853, 2309, 2826, 3331, 3813, 4278, 4683]","[397, 906, 1407, 1881, 2366, 2863, 3363, 3849, 4308, 4731]","[515, 1030, 1528, 2006, 2489, 2985, 3485, 3970, 4425, 4851]","[304, 817, 1304, 1787, 2255, 2760, 3209, 3737, 4220, 4593]","[549, 1063, 1606, 2030, 2514, 3006, 3513, 4016, 4455, 4889]","[254, 767, 1254, 1737, 2205, 2710, 3159, 3687, 4170, 4543]","[599, 1113, 1656, 2080, 2564, 3056, 3563, 4066, 4505, 4939]","[383, 890, 1389, 1865, 2348, 2846, 3348, 3833, 4290, 4718]"
63,"[424, 784, 1129, 1489, 1841, 2210, 2571, 2927, 3295, 3658, 4030, 4382, 4746]","[469, 830, 1185, 1543, 1903, 2263, 2621, 2980, 3347, 3713, 4076, 4436, 4797]","[518, 872, 1228, 1589, 1949, 2307, 2675, 3032, 3413, 3767, 4127, 4479, 4833]","[607, 970, 1326, 1686, 2044, 2406, 2765, 3119, 3486, 3851, 4217, 4579, 4943]","[394, 755, 1107, 1469, 1827, 2190, 2548, 2907, 3283, 3642, 4001, 4360, 4734]","[633, 1004, 1354, 1718, 2074, 2433, 2795, 3149, 3519, 3883, 4245, 4611, 4983]","[344, 705, 1057, 1419, 1777, 2140, 2498, 2857, 3233, 3592, 3951, 4310, 4684]","[683, 1054, 1404, 1768, 2124, 2483, 2845, 3199, 3569, 3933, 4295, 4661, 5033]","[484, 845, 1201, 1559, 1918, 2278, 2637, 2996, 3363, 3728, 4090, 4448, 4813]"
64,"[300, 670, 1007, 1425, 1803, 2182, 2569, 2938, 3316, 3681, 4053, 4422, 4813]","[350, 720, 1100, 1482, 1860, 2241, 2614, 2989, 3367, 3739, 4105, 4480, 4869]","[372, 761, 1145, 1525, 1903, 2262, 2646, 3024, 3396, 3775, 4138, 4547, nan]","[472, 842, 1239, 1612, 1983, 2369, 2743, 3116, 3491, 3869, 4235, 4606, nan]","[272, 648, 997, 1405, 1782, 2173, 2550, 2899, 3291, 3665, 4046, 4403, 4798]","[507, 898, 1269, 1650, 2028, 2415, 2766, 3156, 3533, 3898, 4288, 4638, nan]","[222, 598, 947, 1355, 1732, 2123, 2500, 2849, 3241, 3615, 3996, 4353, 4748]","[557.0, 948.0, 1319.0, 1700.0, 2078.0, 2465.0, 2816.0, 3206.0, 3583.0, 3948.0, 4338.0, 4688.0, nan]","[361, 735, 1116, 1497, 1875, 2253, 2628, 3004, 3381, 3753, 4119, 4497, 4886]"
65,"[180, 588, 963, 1361, 1737, 2124, 2517, 2890, 3267, 3640, 4000, 4363, 4725]","[204, 617, 1000, 1393, 1777, 2163, 2555, 2928, 3302, 3686, 4038, 4399, 4758]","[257, 646, 1030, 1424, 1808, 2197, 2586, 2965, 3340, 3708, 4069, 4434, 4796]","[359, 755, 1132, 1529, 1918, 2302, 2686, 3069, 3447, 3809, 4177, 4534, 4892]","[155, 544, 926, 1345, 1722, 2114, 2452, 2860, 3237, 3607, 3989, 4328, 4699]","[408, 772, 1172, 1558, 1940, 2326, 2725, 3089, 3479, 3846, 4211, 4567, 4923]","[105, 494, 876, 1295, 1672, 2064, 2402, 2810, 3187, 3557, 3939, 4278, 4649]","[458, 822, 1222, 1608, 1990, 2376, 2775, 3139, 3529, 3896, 4261, 4617, 4973]","[239, 634, 1018, 1409, 1796, 2184, 2573, 2953, 3326, 3696, 4057, 4419, 4778]"
66,"[359, 754, 1151, 1565, 1952, 2339, 2684, 3058, 3441, 3831, 4246, 4660]","[406, 815, 1226, 1625, 1999, 2385, 2751, 3121, 3493, 3891, 4303, 4726]","[465, 847, 1276, 1659, 2043, 2425, 2784, 3142, 3516, 3926, 4350, 4746]","[550, 953, 1358, 1759, 2136, 2518, 2856, 3255, 3630, 4022, 4445, 4860]","[324, 729, 1115, 1502, 1929, 2299, 2660, 3021, 3381, 3822, 4231, 4629]","[595, 989, 1381, 1797, 2182, 2556, 2864, 3285, 3662, 4050, 4465, 4890]","[274, 679, 1065, 1452, 1879, 2249, 2610, 2971, 3331, 3772, 4181, 4579]","[645, 1039, 1431, 1847, 2232, 2606, 2914, 3335, 3712, 4100, 4515, 4940]","[431, 828, 1239, 1637, 2022, 2399, 2764, 3134, 3509, 3902, 4319, 4738]"
67,"[108, 600, 1106, 1590, 2021, 2483, 2964, 3433, 3866, 4318, 4822]","[149, 653, 1150, 1632, 2072, 2535, 3019, 3484, 3907, 4373, 4865]","[181, 684, 1181, 1665, 2095, 2588, 3051, 3508, 3935, 4418, 4906]","[301, 806, 1303, 1784, 2225, 2688, 3173, 3634, 4059, 4524, nan]","[-1, 586, 1067, 1578, 2001, 2455, 2953, 3410, 3839, 4307, 4784]","[340, 840, 1336, 1823, 2251, 2726, 3208, 3678, 4092, 4559, nan]","[-51, 536, 1017, 1528, 1951, 2405, 2903, 3360, 3789, 4257, 4734]","[390.0, 890.0, 1386.0, 1873.0, 2301.0, 2776.0, 3258.0, 3728.0, 4142.0, 4609.0, nan]","[164, 669, 1164, 1647, 2083, 2549, 3035, 3496, 3922, 4387, 4880]"
68,"[489, 950, 1413, 1846, 2283, 2736, 3206, 3674, 4150, 4623]","[539, 991, 1460, 1898, 2331, 2785, 3255, 3733, 4211, 4685]","[559, 1036, 1489, 1916, 2351, 2805, 3277, 3758, 4231, 4705]","[680, 1158, 1611, 2037, 2470, 2928, 3400, 3879, 4352, 4826]","[455, 935, 1401, 1839, 2272, 2706, 3179, 3658, 4138, 4601]","[712, 1191, 1646, 2076, 2506, 2959, 3432, 3917, 4385, 4858]","[405, 885, 1351, 1789, 2222, 2656, 3129, 3608, 4088, 4551]","[762, 1241, 1696, 2126, 2556, 3009, 3482, 3967, 4435, 4908]","[547, 1024, 1477, 1904, 2339, 2794, 3264, 3745, 4220, 4694]"
69,"[101, 479, 873, 1252, 1631, 2005, 2385, 2761, 3135, 3497, 3859, 4227, 4607]","[148, 535, 930, 1302, 1676, 2051, 2431, 2812, 3181, 3541, 3905, 4285, 4657]","[184, 568, 945, 1316, 1693, 2066, 2446, 2826, 3196, 3555, 3919, 4299, 4670]","[279, 672, 1060, 1437, 1814, 2187, 2566, 2955, 3319, 3678, 4039, 4424, 4788]","[68, 453, 864, 1235, 1610, 1972, 2349, 2750, 3112, 3474, 3837, 4201, 4578]","[312, 713, 1090, 1470, 1845, 2220, 2587, 2968, 3352, 3696, 4068, 4447, 4817]","[18, 403, 814, 1185, 1560, 1922, 2299, 2700, 3062, 3424, 3787, 4151, 4528]","[362, 763, 1140, 1520, 1895, 2270, 2637, 3018, 3402, 3746, 4118, 4497, 4867]","[158, 544, 939, 1312, 1689, 2060, 2440, 2822, 3191, 3551, 3914, 4295, 4665]"
70,"[238, 562, 889, 1213, 1536, 1860, 2180, 2510, 2838, 3154, 3487, 3801, 4127, 4435, 4755]","[267, 611, 938, 1267, 1591, 1915, 2235, 2565, 2855, 3183, 3532, 3856, 4176, 4468, 4813]","[314, 634, 964, 1291, 1615, 1936, 2261, 2590, 2909, 3232, 3563, 3880, 4197, 4517, 4839]","[409, 750, 1063, 1396, 1729, 2050, 2370, 2704, 3014, 3334, 3661, 3981, 4301, 4615, 4865]","[200, 539, 857, 1183, 1509, 1852, 2161, 2495, 2829, 3079, 3469, 3772, 4097, 4425, 4746]","[453, 784, 1110, 1437, 1772, 2068, 2409, 2736, 3057, 3376, 3725, 4033, 4337, 4655, 4985]","[150, 489, 807, 1133, 1459, 1802, 2111, 2445, 2779, 3029, 3419, 3722, 4047, 4375, 4696]","[503, 834, 1160, 1487, 1822, 2118, 2459, 2786, 3107, 3426, 3775, 4083, 4387, 4705, 5035]","[301, 622, 949, 1279, 1605, 1926, 2250, 2576, 2899, 3220, 3547, 3868, 4186, 4504, 4824]"
71,"[83, 474, 818, 1174, 1608, 1780, 2016, 2370, 2734, 3102, 3462, 3705, 4118, 4502, 4766]","[157, 514, 862, 1269, 1661, 1862, 2038, 2418, 2780, 3156, 3523, 3793, 4222, 4546, 4884]","[195, 543, 896, 1306, 1670, 1869, 2075, 2451, 2811, 3180, 3538, 3800, 4246, 4577, 4905]","[306, 631, 1000, 1410, 1780, 2064, 2171, 2540, 2921, 3281, 3640, 3943, 4329, 4655, 4935]","[28, 466, 811, 1164, 1540, 1737, 1909, 2362, 2686, 3094, 3454, 3670, 4112, 4409, 4757]","[316, 641, 1032, 1443, 1832, 2077, 2221, 2551, 2965, 3309, 3670, 3966, 4340, 4709, 4984]","[-22, 416, 761, 1114, 1490, 1687, 1859, 2312, 2636, 3044, 3404, 3620, 4062, 4359, 4707]","[366, 691, 1082, 1493, 1882, 2127, 2271, 2601, 3015, 3359, 3720, 4016, 4390, 4759, 5034]","[182, 532, 886, 1293, 1668, 1866, 2064, 2438, 2801, 3166, 3525, 3796, 4234, 4566, 4894]"
72,"[213, 489, 855, 1156, 1578, 1911, 2262, 2745, 3066, 3501, 3768, 4142, 4583, 4623]","[240, 619, 949, 1293, 1628, 2002, 2365, 2757, 3130, 3510, 3857, 4242, 4603, 4776]","[275, 637, 984, 1323, 1674, 2032, 2407, 2779, 3147, 3543, 3900, 4263, 4636, 4791]","[388, 739, 1096, 1414, 1797, 2131, 2515, 2896, 3250, 3647, 3988, 4370, 4732, 4826]","[137, 480, 840, 1151, 1571, 1896, 2226, 2737, 3055, 3493, 3759, 4133, 4575, 4618]","[449, 840, 1107, 1425, 1808, 2171, 2532, 2941, 3282, 3688, 4098, 4395, 4774, 4985]","[87, 430, 790, 1101, 1521, 1846, 2176, 2687, 3005, 3443, 3709, 4083, 4525, 4568]","[499, 890, 1157, 1475, 1858, 2221, 2582, 2991, 3332, 3738, 4148, 4445, 4824, 5035]","[267, 626, 968, 1311, 1664, 2018, 2393, 2767, 3144, 3531, 3886, 4250, 4622, 4786]"
73,"[333, 682, 1042, 1731, 2063, 2393, 2724, 3077, 3418, 3760, 4128, 4837]","[377, 724, 1089, 1779, 2110, 2429, 2759, 3126, 3447, 3802, 4179, 4880]","[398, 754, 1116, 1799, 2131, 2462, 2796, 3149, 3491, 3835, 4202, 4903]","[504, 864, 1216, 1916, 2225, 2561, 2899, 3264, 3596, 3939, 4305, 4935]","[295, 668, 1023, 1701, 2031, 2368, 2708, 3009, 3386, 3731, 4080, 4815]","[535, 874, 1282, 1944, 2263, 2606, 2930, 3280, 3628, 4005, 4377, 4987]","[245, 618, 973, 1651, 1981, 2318, 2658, 2959, 3336, 3681, 4030, 4765]","[585, 924, 1332, 1994, 2313, 2656, 2980, 3330, 3678, 4055, 4427, 5037]","[385, 740, 1103, 1787, 2119, 2450, 2783, 3135, 3479, 3822, 4190, 4890]"
74,"[109, 592, 1078, 1575, 2063, 2595, 3132, 3659, 4174, 4736]","[159, 646, 1119, 1634, 2102, 2652, 3181, 3711, 4197, 4794]","[225, 722, 1229, 1685, 2179, 2726, 3232, 3774, 4305, 4861]","[365, 844, 1320, 1804, 2312, 2844, 3374, 3897, 4433, 4908]","[78, 583, 1018, 1555, 2038, 2571, 3112, 3581, 4121, 4721]","[403, 873, 1349, 1844, 2338, 2872, 3440, 3937, 4473, 4982]","[28, 533, 968, 1505, 1988, 2521, 3062, 3531, 4071, 4671]","[453, 923, 1399, 1894, 2388, 2922, 3490, 3987, 4523, 5032]","[202, 675, 1159, 1651, 2144, 2673, 3213, 3736, 4255, 4825]"
75,"[200, 564, 898, 1251, 1569, 1942, 2338, 2730, 3115, 3522, 3925, 4315, 4668]","[240, 603, 943, 1284, 1613, 1974, 2369, 2771, 3161, 3570, 3974, 4362, 4709]","[265, 632, 971, 1310, 1646, 2008, 2405, 2795, 3187, 3592, 3995, 4386, 4733]","[369, 742, 1077, 1412, 1752, 2111, 2511, 2894, 3297, 3693, 4106, 4498, 4840]","[166, 507, 864, 1170, 1467, 1865, 2293, 2703, 3105, 3494, 3904, 4306, 4660]","[399, 761, 1123, 1467, 1782, 2153, 2542, 2943, 3326, 3727, 4137, 4517, 4872]","[116, 457, 814, 1120, 1417, 1815, 2243, 2653, 3055, 3444, 3854, 4256, 4610]","[449, 811, 1173, 1517, 1832, 2203, 2592, 2993, 3376, 3777, 4187, 4567, 4922]","[255, 618, 961, 1301, 1633, 1996, 2392, 2781, 3177, 3580, 3985, 4373, 4724]"
76,"[219, 617, 1033, 1454, 1878, 2334, 2735, 3152, 3566, 4010, 4446, 4863]","[271, 688, 1069, 1466, 1930, 2371, 2784, 3194, 3611, 4025, 4501, 4915]","[282, 698, 1096, 1513, 1950, 2393, 2809, 3210, 3631, 4071, 4514, 4927]","[416, 713, 1208, 1634, 2078, 2508, 2826, 3211, 3749, 4186, 4530, nan]","[190, 611, 967, 1415, 1832, 2304, 2729, 3136, 3532, 3986, 4419, 4804]","[431, 794, 1257, 1692, 2109, 2551, 2959, 3221, 3826, 4216, 4673, nan]","[140, 561, 917, 1365, 1782, 2254, 2679, 3086, 3482, 3936, 4369, 4754]","[481.0, 844.0, 1307.0, 1742.0, 2159.0, 2601.0, 3009.0, 3271.0, 3876.0, 4266.0, 4723.0, nan]","[276, 690, 1086, 1507, 1944, 2385, 2800, 3205, 3625, 4063, 4506, 4920]"
77,"[276, 701, 1110, 1491, 1874, 2279, 2666, 3065, 3470, 3838, 4233, 4665]","[328, 740, 1149, 1535, 1924, 2330, 2720, 3113, 3511, 3890, 4286, 4703]","[368, 782, 1172, 1578, 1964, 2400, 2763, 3168, 3548, 3927, 4307, 4745]","[475, 887, 1292, 1678, 2064, 2471, 2864, 3261, 3658, 4038, 4429, 4852]","[224, 691, 1100, 1475, 1866, 2271, 2653, 3054, 3449, 3831, 4220, 4650]","[514, 923, 1331, 1720, 2102, 2510, 2909, 3286, 3688, 4067, 4460, 4886]","[174, 641, 1050, 1425, 1816, 2221, 2603, 3004, 3399, 3781, 4170, 4600]","[564, 973, 1381, 1770, 2152, 2560, 2959, 3336, 3738, 4117, 4510, 4936]","[340, 750, 1160, 1545, 1934, 2340, 2730, 3124, 3521, 3901, 4296, 4713]"
78,"[194, 580, 954, 1338, 1738, 2138, 2582, 2962, 3343, 3736, 4110, 4466, 4866]","[261, 627, 991, 1385, 1802, 2200, 2602, 3001, 3397, 3775, 4148, 4567, 4919]","[285, 660, 1015, 1423, 1832, 2229, 2623, 3027, 3425, 3802, 4200, 4598, 4932]","[390, 765, 1137, 1531, 1941, 2346, 2745, 3132, 3539, 3915, 4306, 4713, 4940]","[186, 572, 946, 1273, 1731, 2114, 2578, 2922, 3275, 3728, 4069, 4458, 4854]","[442, 823, 1177, 1585, 1986, 2366, 2793, 3139, 3570, 3973, 4350, 4736, 4987]","[136, 522, 896, 1223, 1681, 2064, 2528, 2872, 3225, 3678, 4019, 4408, 4804]","[492, 873, 1227, 1635, 2036, 2416, 2843, 3189, 3620, 4023, 4400, 4786, 5037]","[274, 639, 1009, 1402, 1816, 2214, 2612, 3012, 3410, 3788, 4177, 4582, 4926]"
79,"[205, 651, 1103, 1552, 1984, 2428, 2896, 3377, 3849, 4338, 4835]","[270, 714, 1165, 1600, 2038, 2488, 2957, 3434, 3909, 4398, 4896]","[296, 737, 1190, 1631, 2062, 2514, 2982, 3458, 3935, 4422, 4919]","[422, 870, 1316, 1759, 2191, 2642, 3111, 3588, 4063, 4556, 4929]","[179, 603, 1093, 1534, 1908, 2417, 2852, 3359, 3829, 4324, 4811]","[455, 900, 1349, 1790, 2267, 2668, 3145, 3620, 4094, 4586, 4984]","[129, 553, 1043, 1484, 1858, 2367, 2802, 3309, 3779, 4274, 4761]","[505, 950, 1399, 1840, 2317, 2718, 3195, 3670, 4144, 4636, 5034]","[286, 728, 1180, 1619, 2050, 2504, 2972, 3449, 3923, 4413, 4909]"
80,"[360, 961, 1586, 2282, 2672, 2963, 3475, 4263, 4872]","[402, 1019, 1639, 2326, 2749, 3007, 3649, 4307, 4926]","[426, 1042, 1664, 2350, 2915, 3032, 3671, 4331, nan]","[564, 1183, 1801, 2495, 3022, 3173, 3817, 4475, nan]","[254, 930, 1569, 2271, 2643, 2933, 3474, 4193, 4780]","[601, 1218, 1836, 2527, 3027, 3202, 3843, 4509, nan]","[204, 880, 1519, 2221, 2593, 2883, 3424, 4143, 4730]","[651.0, 1268.0, 1886.0, 2577.0, 3077.0, 3252.0, 3893.0, 4559.0, nan]","[416, 1032, 1653, 2340, 2752, 3021, 3662, 4321, 4940]"
81,"[259, 639, 1028, 1408, 1806, 2238, 2644, 3036, 3408, 3772, 4155, 4545, 4823]","[286, 664, 1066, 1446, 1841, 2265, 2688, 3075, 3442, 3809, 4195, 4570, 4906]","[314, 706, 1094, 1478, 1874, 2291, 2708, 3103, 3470, 3837, 4220, 4607, 4936]","[428, 822, 1212, 1592, 1988, 2411, 2826, 3222, 3587, 3952, 4338, 4726, 4938]","[240, 627, 1015, 1398, 1798, 2207, 2626, 3017, 3399, 3744, 4143, 4529, 4798]","[456, 850, 1244, 1618, 2015, 2444, 2850, 3247, 3620, 3978, 4373, 4756, 4986]","[190, 577, 965, 1348, 1748, 2157, 2576, 2967, 3349, 3694, 4093, 4479, 4748]","[506, 900, 1294, 1668, 2065, 2494, 2900, 3297, 3670, 4028, 4423, 4806, 5036]","[302, 694, 1081, 1465, 1861, 2279, 2697, 3092, 3458, 3824, 4208, 4596, 4919]"
82,"[162, 420, 696, 951, 1222, 1486, 1739, 2005, 2282, 2544, 2819, 3100, 3361, 3622, 3899, 4178, 4451, 4720]","[203, 465, 738, 1002, 1271, 1531, 1790, 2052, 2327, 2600, 2875, 3147, 3408, 3675, 3946, 4223, 4493, 4764]","[228, 492, 765, 1031, 1298, 1557, 1819, 2077, 2355, 2626, 2902, 3174, 3435, 3704, 3975, 4250, 4525, 4793]","[319, 575, 848, 1114, 1386, 1637, 1906, 2169, 2437, 2718, 2988, 3257, 3527, 3790, 4059, 4339, 4610, 4879]","[112, 396, 659, 927, 1191, 1419, 1678, 1949, 2247, 2520, 2811, 3039, 3330, 3559, 3836, 4137, 4432, 4704]","[345, 606, 873, 1191, 1419, 1678, 1949, 2201, 2482, 2755, 3019, 3330, 3557, 3836, 4100, 4366, 4646, 4912]","[62, 346, 609, 877, 1141, 1369, 1628, 1899, 2197, 2470, 2761, 2989, 3280, 3509, 3786, 4087, 4382, 4654]","[395, 656, 923, 1241, 1469, 1728, 1999, 2251, 2532, 2805, 3069, 3380, 3607, 3886, 4150, 4416, 4696, 4962]","[218, 481, 754, 1019, 1287, 1545, 1806, 2068, 2342, 2615, 2890, 3162, 3424, 3691, 3965, 4240, 4512, 4782]"
83,"[254, 708, 1164, 1621, 2085, 2552, 3035, 3514, 3997, 4469, 4803]","[317, 774, 1230, 1687, 2144, 2615, 3097, 3577, 4058, 4532, 4895]","[412, 811, 1272, 1746, 2199, 2662, 3152, 3629, 4094, 4601, 4924]","[460, 920, 1374, 1834, 2291, 2765, 3251, 3725, 4206, 4677, 4936]","[243, 697, 1154, 1601, 2057, 2539, 3019, 3504, 3983, 4459, 4767]","[496, 952, 1403, 1874, 2328, 2792, 3282, 3771, 4238, 4717, 4984]","[193, 647, 1104, 1551, 2007, 2489, 2969, 3454, 3933, 4409, 4717]","[546, 1002, 1453, 1924, 2378, 2842, 3332, 3821, 4288, 4767, 5034]","[330, 784, 1243, 1699, 2156, 2627, 3108, 3590, 4071, 4545, 4922]"
84,"[486, 1028, 1541, 2060, 2293, 2587, 3082, 3612, 4134, 4630]","[547, 1082, 1589, 2113, 2398, 2640, 3144, 3671, 4198, 4692]","[610, 1124, 1618, 2192, 2455, 2690, 3187, 3708, 4234, 4748]","[690, 1231, 1732, 2253, 2657, 2786, 3282, 3814, 4338, 4831]","[462, 1018, 1480, 2028, 2290, 2577, 3055, 3593, 4121, 4595]","[719, 1267, 1763, 2293, 2663, 2812, 3315, 3836, 4369, 4874]","[412, 968, 1430, 1978, 2240, 2527, 3005, 3543, 4071, 4545]","[769, 1317, 1813, 2343, 2713, 2862, 3365, 3886, 4419, 4924]","[563, 1098, 1605, 2129, 2444, 2656, 3158, 3685, 4214, 4707]"
85,"[133, 481, 836, 1178, 1514, 1862, 2203, 2525, 2864, 3203, 3533, 3860, 4183, 4529, 4865]","[176, 526, 884, 1224, 1568, 1915, 2250, 2572, 2911, 3250, 3580, 3904, 4236, 4578, 4915]","[198, 549, 905, 1245, 1589, 1937, 2270, 2593, 2932, 3272, 3601, 3925, 4258, 4599, 4934]","[300, 654, 1011, 1350, 1694, 2035, 2375, 2698, 3038, 3379, 3709, 4027, 4362, 4700, nan]","[98, 467, 809, 1165, 1502, 1852, 2188, 2510, 2847, 3185, 3518, 3847, 4174, 4515, 4853]","[326, 685, 1045, 1379, 1726, 2069, 2403, 2730, 3065, 3399, 3745, 4064, 4392, 4734, nan]","[48, 417, 759, 1115, 1452, 1802, 2138, 2460, 2797, 3135, 3468, 3797, 4124, 4465, 4803]","[376.0, 735.0, 1095.0, 1429.0, 1776.0, 2119.0, 2453.0, 2780.0, 3115.0, 3449.0, 3795.0, 4114.0, 4442.0, 4784.0, nan]","[189, 540, 896, 1236, 1580, 1927, 2261, 2584, 2923, 3262, 3592, 3916, 4249, 4590, 4926]"
86,"[198, 520, 842, 1169, 1493, 1812, 2122, 2420, 2718, 3013, 3314, 3611, 3906, 4219, 4543, 4883]","[221, 546, 867, 1183, 1510, 1828, 2155, 2439, 2732, 3032, 3348, 3632, 3944, 4257, 4582, 4900]","[254, 580, 902, 1226, 1552, 1872, 2180, 2480, 2779, 3074, 3372, 3669, 3971, 4280, 4604, 4943]","[352, 679, 1003, 1326, 1653, 1970, 2277, 2578, 2879, 3171, 3476, 3765, 4066, 4381, 4706, 4947]","[162, 503, 806, 1134, 1485, 1796, 2023, 2384, 2630, 2923, 3298, 3597, 3817, 4128, 4527, 4873]","[391, 729, 1036, 1365, 1701, 2001, 2325, 2630, 2903, 3202, 3503, 3798, 4104, 4422, 4734, 4984]","[112, 453, 756, 1084, 1435, 1746, 1973, 2334, 2580, 2873, 3248, 3547, 3767, 4078, 4477, 4823]","[441, 779, 1086, 1415, 1751, 2051, 2375, 2680, 2953, 3252, 3553, 3848, 4154, 4472, 4784, 5034]","[246, 572, 893, 1218, 1543, 1863, 2172, 2471, 2770, 3066, 3362, 3660, 3961, 4271, 4595, 4935]"
87,"[368, 778, 1192, 1600, 2037, 2486, 2928, 3371, 3829, 4302, 4768]","[419, 836, 1247, 1662, 2059, 2537, 2975, 3398, 3868, 4339, 4820]","[449, 863, 1278, 1690, 2120, 2567, 3017, 3455, 3914, 4386, 4849]","[576, 995, 1400, 1818, 2245, 2699, 3147, 3586, 4043, 4516, 4863]","[353, 756, 1137, 1587, 2022, 2466, 2914, 3356, 3813, 4284, 4747]","[616, 1023, 1440, 1842, 2273, 2727, 3173, 3610, 4075, 4541, 4984]","[303, 706, 1087, 1537, 1972, 2416, 2864, 3306, 3763, 4234, 4697]","[666, 1073, 1490, 1892, 2323, 2777, 3223, 3660, 4125, 4591, 5034]","[437, 849, 1259, 1675, 2106, 2554, 3004, 3442, 3899, 4372, 4834]"
88,"[180, 731, 1243, 1747, 2253, 2778, 3287, 3774, 4311, 4812]","[241, 784, 1294, 1797, 2318, 2841, 3331, 3823, 4356, 4867]","[270, 814, 1320, 1827, 2348, 2871, 3359, 3850, 4385, 4898]","[410, 950, 1467, 1964, 2493, 3010, 3499, 3981, 4522, nan]","[152, 699, 1205, 1709, 2232, 2751, 3237, 3734, 4264, 4786]","[449, 1030, 1493, 2002, 2522, 3049, 3544, 4024, 4557, nan]","[102, 649, 1155, 1659, 2182, 2701, 3187, 3684, 4214, 4736]","[499.0, 1080.0, 1543.0, 2052.0, 2572.0, 3099.0, 3594.0, 4074.0, 4607.0, nan]","[251, 796, 1303, 1808, 2329, 2851, 3341, 3831, 4365, 4879]"
89,"[343, 658, 963, 1274, 1578, 1894, 2213, 2559, 2906, 3243, 3561, 3884, 4218, 4558, 4896]","[387, 671, 1007, 1316, 1597, 1930, 2256, 2598, 2945, 3277, 3599, 3906, 4258, 4597, 4934]","[408, 719, 1049, 1339, 1644, 1953, 2280, 2623, 2968, 3305, 3623, 3947, 4281, 4620, 4947]","[512, 810, 1124, 1438, 1743, 2046, 2376, 2719, 3060, 3394, 3714, 4042, 4374, 4712, 4948]","[335, 640, 954, 1246, 1572, 1863, 2202, 2541, 2875, 3182, 3545, 3867, 4193, 4542, 4887]","[540, 852, 1146, 1468, 1763, 2079, 2403, 2749, 3091, 3415, 3746, 4066, 4403, 4741, 4984]","[285, 590, 904, 1196, 1522, 1813, 2152, 2491, 2825, 3132, 3495, 3817, 4143, 4492, 4837]","[590, 902, 1196, 1518, 1813, 2129, 2453, 2799, 3141, 3465, 3796, 4116, 4453, 4791, 5034]","[399, 707, 1016, 1327, 1630, 1941, 2268, 2612, 2956, 3287, 3610, 3934, 4270, 4608, 4944]"
90,"[210, 609, 1000, 1479, 2028, 2569, 3125, 3645, 4197, 4746]","[266, 657, 1037, 1520, 2067, 2621, 3166, 3684, 4242, 4786]","[290, 693, 1069, 1588, 2105, 2663, 3192, 3729, 4273, 4830]","[413, 808, 1192, 1676, 2218, 2778, 3323, 3839, 4401, 4852]","[184, 581, 913, 1445, 1993, 2547, 3091, 3627, 4132, 4710]","[445, 834, 1231, 1715, 2279, 2807, 3352, 3879, 4437, 4982]","[134, 531, 863, 1395, 1943, 2497, 3041, 3577, 4082, 4660]","[495, 884, 1281, 1765, 2329, 2857, 3402, 3929, 4487, 5032]","[276, 669, 1053, 1536, 2080, 2636, 3179, 3700, 4256, 4802]"
91,"[378, 805, 1224, 1618, 2026, 2444, 2849, 3247, 3654, 4069, 4480, 4848]","[451, 877, 1287, 1681, 2091, 2507, 2919, 3319, 3725, 4138, 4546, 4873]","[480, 907, 1315, 1709, 2122, 2538, 2949, 3350, 3755, 4168, 4574, 4897]","[587, 1009, 1421, 1816, 2224, 2640, 3055, 3452, 3862, 4275, 4678, 4929]","[352, 798, 1210, 1600, 2017, 2423, 2841, 3235, 3645, 4058, 4457, 4771]","[618, 1047, 1462, 1846, 2261, 2676, 3100, 3492, 3892, 4305, 4717, 4987]","[302, 748, 1160, 1550, 1967, 2373, 2791, 3185, 3595, 4008, 4407, 4721]","[668, 1097, 1512, 1896, 2311, 2726, 3150, 3542, 3942, 4355, 4767, 5037]","[466, 891, 1301, 1695, 2106, 2523, 2934, 3334, 3740, 4153, 4561, 4879]"
92,"[118, 475, 823, 1223, 1596, 1965, 2343, 2705, 3073, 3429, 3612, 3704, 4156, 4510, 4887]","[169, 515, 843, 1261, 1608, 2013, 2402, 2758, 3125, 3485, 3683, 3818, 4175, 4548, 4931]","[193, 543, 903, 1287, 1666, 2049, 2421, 2784, 3143, 3508, 3690, 3868, 4235, 4609, 4938]","[283, 642, 1002, 1385, 1762, 2145, 2519, 2892, 3242, 3612, 3860, 3968, 4335, 4700, nan]","[54, 381, 804, 1215, 1564, 1956, 2334, 2610, 3038, 3364, 3585, 3701, 4094, 4474, 4864]","[333, 727, 1030, 1431, 1802, 2220, 2607, 2932, 3320, 3635, 3873, 4010, 4367, 4721, nan]","[4, 331, 754, 1165, 1514, 1906, 2284, 2560, 2988, 3314, 3535, 3651, 4044, 4424, 4814]","[383.0, 777.0, 1080.0, 1481.0, 1852.0, 2270.0, 2657.0, 2982.0, 3370.0, 3685.0, 3923.0, 4060.0, 4417.0, 4771.0, nan]","[181, 537, 896, 1275, 1659, 2041, 2414, 2776, 3136, 3499, 3686, 3860, 4226, 4584, 4934]"
93,"[116, 544, 951, 1352, 1785, 2221, 2660, 3071, 3480, 3881, 4312, 4753]","[185, 616, 1023, 1425, 1852, 2290, 2732, 3145, 3544, 3953, 4384, 4820]","[211, 640, 1046, 1450, 1876, 2315, 2761, 3169, 3566, 3977, 4407, 4847]","[336, 754, 1161, 1569, 1999, 2437, 2872, 3290, 3681, 4102, 4523, 4849]","[90, 509, 929, 1332, 1779, 2195, 2648, 3047, 3461, 3858, 4304, 4727]","[367, 785, 1192, 1610, 2042, 2489, 2910, 3309, 3712, 4138, 4568, 4987]","[40, 459, 879, 1282, 1729, 2145, 2598, 2997, 3411, 3808, 4254, 4677]","[417, 835, 1242, 1660, 2092, 2539, 2960, 3359, 3762, 4188, 4618, 5037]","[197, 629, 1035, 1438, 1864, 2302, 2745, 3156, 3556, 3966, 4396, 4832]"
94,"[410, 871, 1289, 1709, 2157, 2618, 3023, 3441, 3893, 4333, 4746]","[463, 926, 1349, 1770, 2216, 2648, 3082, 3460, 3943, 4389, 4806]","[502, 948, 1370, 1792, 2242, 2696, 3104, 3520, 3966, 4410, 4827]","[618, 1069, 1491, 1909, 2363, 2805, 3225, 3640, 4082, 4526, 4833]","[372, 846, 1280, 1686, 2148, 2593, 2999, 3389, 3864, 4322, 4734]","[653, 1101, 1525, 1940, 2394, 2848, 3259, 3678, 4129, 4566, 4984]","[322, 796, 1230, 1636, 2098, 2543, 2949, 3339, 3814, 4272, 4684]","[703, 1151, 1575, 1990, 2444, 2898, 3309, 3728, 4179, 4616, 5034]","[492, 939, 1361, 1781, 2233, 2687, 3095, 3511, 3956, 4402, 4819]"
95,"[150, 552, 941, 1315, 1758, 2159, 2679, 3089, 3458, 3884, 4320, 4749]","[171, 579, 962, 1356, 1787, 2251, 2696, 3111, 3488, 3906, 4346, 4785]","[201, 609, 995, 1390, 1826, 2288, 2737, 3140, 3525, 3934, 4374, 4817]","[318, 723, 1108, 1504, 1939, 2402, 2857, 3255, 3644, 4048, 4495, 4935]","[109, 514, 906, 1306, 1734, 2131, 2616, 3053, 3431, 3842, 4283, 4706]","[355, 767, 1142, 1539, 1976, 2445, 2891, 3296, 3678, 4086, 4526, 4986]","[59, 464, 856, 1256, 1684, 2081, 2566, 3003, 3381, 3792, 4233, 4656]","[405, 817, 1192, 1589, 2026, 2495, 2941, 3346, 3728, 4136, 4576, 5036]","[188, 594, 982, 1375, 1814, 2276, 2722, 3126, 3511, 3922, 4362, 4803]"
96,"[560, 1149, 1761, 2346, 2937, 3519, 4118, 4224, 4721]","[600, 1181, 1784, 2376, 2979, 3560, 4159, 4239, 4758]","[637, 1230, 1844, 2441, 3049, 3613, 4222, 4367, 4820]","[769, 1348, 1957, 2544, 3151, 3727, 4325, 4560, 4925]","[499, 1098, 1659, 2296, 2836, 3469, 4086, 4193, 4654]","[808, 1385, 1995, 2569, 3190, 3762, 4359, 4576, 4982]","[449, 1048, 1609, 2246, 2786, 3419, 4036, 4143, 4604]","[858, 1435, 2045, 2619, 3240, 3812, 4409, 4626, 5032]","[613, 1198, 1806, 2390, 2995, 3574, 4170, 4355, 4773]"
97,"[113, 491, 859, 1225, 1578, 1940, 2314, 2666, 3225, 3631, 4241, 4575]","[134, 529, 904, 1262, 1629, 1968, 2326, 2686, 3299, 3675, 4252, 4585]","[187, 558, 935, 1294, 1657, 2020, 2385, 2732, 3348, 3699, 4306, 4647]","[286, 666, 1036, 1397, 1754, 2119, 2486, 2835, 3466, 3808, 4413, 4749]","[105, 426, 833, 1216, 1531, 1907, 2302, 2649, 3212, 3580, 4196, 4553]","[328, 697, 1070, 1437, 1791, 2157, 2514, 2875, 3480, 3840, 4446, 4785]","[55, 376, 783, 1166, 1481, 1857, 2252, 2599, 3162, 3530, 4146, 4503]","[378, 747, 1120, 1487, 1841, 2207, 2564, 2925, 3530, 3890, 4496, 4835]","[176, 548, 922, 1283, 1644, 2007, 2373, 2722, 3337, 3689, 4293, 4638]"
98,"[163, 610, 1093, 1576, 2021, 2472, 2902, 3364, 3809, 4269, 4709]","[211, 666, 1135, 1608, 2071, 2507, 2944, 3388, 3853, 4311, 4750]","[243, 700, 1174, 1652, 2098, 2540, 2980, 3437, 3891, 4345, 4785]","[272, 816, 1293, 1782, 2223, 2662, 3103, 3559, 4020, 4468, 4903]","[139, 601, 1085, 1558, 2007, 2434, 2888, 3326, 3758, 4170, 4683]","[397, 906, 1382, 1811, 2303, 2688, 3176, 3632, 4075, 4508, 4939]","[89, 551, 1035, 1508, 1957, 2384, 2838, 3276, 3708, 4120, 4633]","[447, 956, 1432, 1861, 2353, 2738, 3226, 3682, 4125, 4558, 4989]","[227, 682, 1158, 1639, 2084, 2522, 2962, 3421, 3876, 4327, 4767]"
99,"[112, 461, 708, 1001, 1297, 1589, 1880, 2180, 2477, 2734, 3054, 3303, 3588, 3886, 4170, 4459, 4744]","[193, 492, 790, 1080, 1378, 1668, 1959, 2255, 2557, 2849, 3131, 3413, 3685, 3965, 4242, 4535, 4821]","[208, 506, 804, 1098, 1388, 1683, 1974, 2266, 2572, 2863, 3143, 3423, 3704, 3975, 4261, 4551, 4836]","[302, 610, 900, 1200, 1484, 1781, 2075, 2365, 2664, 2959, 3243, 3528, 3800, 4082, 4355, 4645, 4935]","[68, 427, 651, 982, 1256, 1578, 1839, 2123, 2419, 2717, 3033, 3284, 3554, 3845, 4108, 4448, 4733]","[329, 631, 928, 1222, 1522, 1839, 2101, 2406, 2697, 3033, 3294, 3550, 3845, 4108, 4399, 4678, 4985]","[18, 377, 601, 932, 1206, 1528, 1789, 2073, 2369, 2667, 2983, 3234, 3504, 3795, 4058, 4398, 4683]","[379, 681, 978, 1272, 1572, 1889, 2151, 2456, 2747, 3083, 3344, 3600, 3895, 4158, 4449, 4728, 5035]","[198, 496, 794, 1086, 1382, 1671, 1963, 2261, 2560, 2853, 3136, 3415, 3691, 3969, 4249, 4539, 4826]"
100,"[241, 569, 918, 1092, 1581, 1873, 2477, 2638, 2987, 3408, 3856, 4288, 4747]","[300, 611, 923, 1135, 1592, 1982, 2506, 2722, 3017, 3467, 3890, 4318, 4791]","[314, 635, 932, 1145, 1629, 1990, 2524, 2816, 3033, 3483, 3907, 4340, 4810]","[337, 757, 1138, 1257, 1746, 2078, 2638, 3025, 3158, 3608, 4019, 4459, 4919]","[125, 557, 915, 983, 1467, 1850, 2432, 2637, 2931, 3396, 3843, 4269, 4724]","[345, 792, 1149, 1277, 1765, 2089, 2679, 3038, 3191, 3639, 4064, 4495, 4982]","[75, 507, 865, 933, 1417, 1800, 2382, 2587, 2881, 3346, 3793, 4219, 4674]","[395, 842, 1199, 1327, 1815, 2139, 2729, 3088, 3241, 3689, 4114, 4545, 5032]","[302, 626, 928, 1138, 1620, 1986, 2515, 2811, 3025, 3475, 3897, 4331, 4802]"
101,"[206, 632, 1026, 1419, 1804, 2194, 2604, 3032, 3454, 3849, 4236, 4666]","[223, 666, 1052, 1460, 1835, 2253, 2662, 3079, 3494, 3892, 4292, 4698]","[294, 697, 1100, 1479, 1878, 2275, 2716, 3106, 3517, 3915, 4325, 4731]","[400, 821, 1222, 1603, 1993, 2394, 2811, 3229, 3637, 4034, 4434, 4858]","[143, 587, 993, 1368, 1797, 2152, 2584, 3008, 3388, 3808, 4227, 4642]","[462, 858, 1258, 1645, 2027, 2427, 2837, 3254, 3667, 4073, 4483, 4887]","[93, 537, 943, 1318, 1747, 2102, 2534, 2958, 3338, 3758, 4177, 4592]","[512, 908, 1308, 1695, 2077, 2477, 2887, 3304, 3717, 4123, 4533, 4937]","[270, 690, 1092, 1472, 1867, 2269, 2674, 3098, 3509, 3907, 4307, 4721]"
102,"[91, 563, 1094, 1680, 2290, 2670, 3295, 3882, 4485]","[159, 630, 1163, 1751, 2303, 2817, 3369, 3956, 4547]","[238, 699, 1224, 1808, 2346, 2861, 3475, 4015, 4609]","[317, 784, 1319, 1916, 2460, 2977, 3527, 4118, 4709]","[-16, 533, 1083, 1633, 2278, 2658, 3280, 3869, 4461]","[395, 807, 1348, 1943, 2484, 3000, 3563, 4146, 4741]","[-66, 483, 1033, 1583, 2228, 2608, 3230, 3819, 4411]","[445, 857, 1398, 1993, 2534, 3050, 3613, 4196, 4791]","[176, 644, 1178, 1769, 2319, 2830, 3383, 3972, 4562]"
103,"[173, 586, 960, 1342, 1717, 2122, 2514, 2885, 3277, 3700, 4120, 4514, 4841]","[229, 633, 1008, 1389, 1769, 2177, 2570, 2944, 3332, 3750, 4176, 4564, 4902]","[241, 645, 1033, 1413, 1776, 2198, 2590, 2968, 3355, 3774, 4197, 4592, 4906]","[371, 781, 1138, 1536, 1906, 2322, 2711, 3093, 3463, 3899, 4321, 4711, 4914]","[158, 569, 881, 1294, 1647, 2100, 2493, 2847, 3252, 3639, 4085, 4455, 4833]","[405, 827, 1179, 1574, 1954, 2342, 2734, 3122, 3533, 3930, 4359, 4753, 4986]","[108, 519, 831, 1244, 1597, 2050, 2443, 2797, 3202, 3589, 4035, 4405, 4783]","[455, 877, 1229, 1624, 2004, 2392, 2784, 3172, 3583, 3980, 4409, 4803, 5036]","[238, 642, 1016, 1397, 1775, 2187, 2578, 2953, 3340, 3759, 4185, 4578, 4904]"
104,"[168, 530, 913, 1305, 1684, 2041, 2384, 2716, 3056, 3443, 3850, 4246, 4606, 4789]","[187, 550, 942, 1341, 1718, 2058, 2414, 2747, 3092, 3473, 3865, 4263, 4626, 4902]","[233, 596, 973, 1371, 1750, 2106, 2446, 2778, 3124, 3504, 3915, 4306, 4677, 4924]","[347, 707, 1084, 1478, 1852, 2217, 2556, 2883, 3228, 3607, 4022, 4404, 4789, 4930]","[158, 516, 896, 1293, 1670, 2025, 2367, 2699, 3043, 3420, 3801, 4146, 4591, 4753]","[393, 736, 1124, 1523, 1916, 2245, 2602, 2935, 3259, 3708, 4075, 4454, 4817, 4983]","[108, 466, 846, 1243, 1620, 1975, 2317, 2649, 2993, 3370, 3751, 4096, 4541, 4703]","[443, 786, 1174, 1573, 1966, 2295, 2652, 2985, 3309, 3758, 4125, 4504, 4867, 5033]","[220, 581, 960, 1356, 1734, 2093, 2431, 2763, 3111, 3490, 3901, 4292, 4660, 4917]"
105,"[184, 545, 907, 1272, 1661, 2027, 2384, 2748, 3117, 3472, 3835, 4193, 4562, 4750]","[238, 573, 944, 1320, 1692, 2076, 2427, 2798, 3151, 3521, 3884, 4247, 4616, 4905]","[265, 626, 976, 1349, 1740, 2107, 2461, 2824, 3197, 3545, 3912, 4277, 4641, 4943]","[368, 741, 1085, 1465, 1846, 2215, 2569, 2934, 3302, 3659, 4019, 4385, 4750, 4945]","[161, 534, 866, 1255, 1645, 2015, 2371, 2729, 3103, 3461, 3821, 4183, 4548, 4748]","[405, 761, 1116, 1504, 1898, 2254, 2602, 2963, 3336, 3689, 4053, 4480, 4784, 4983]","[111, 484, 816, 1205, 1595, 1965, 2321, 2679, 3053, 3411, 3771, 4133, 4498, 4698]","[455, 811, 1166, 1554, 1948, 2304, 2652, 3013, 3386, 3739, 4103, 4530, 4834, 5033]","[255, 615, 966, 1340, 1729, 2096, 2451, 2816, 3186, 3542, 3905, 4266, 4630, 4913]"
106,"[248, 533, 815, 1096, 1386, 1657, 1954, 2246, 2519, 2786, 3081, 3360, 3648, 3904, 4213, 4507, 4777]","[275, 583, 872, 1157, 1440, 1727, 2009, 2294, 2577, 2855, 3133, 3415, 3708, 3992, 4281, 4568, 4854]","[326, 610, 893, 1177, 1463, 1748, 2031, 2314, 2597, 2879, 3161, 3444, 3727, 4013, 4300, 4589, 4878]","[406, 701, 1050, 1269, 1547, 1862, 2107, 2337, 2680, 2975, 3255, 3487, 3821, 4127, 4389, 4693, 4889]","[239, 502, 759, 1060, 1339, 1645, 1887, 2170, 2500, 2737, 3071, 3299, 3588, 3879, 4151, 4464, 4732]","[493, 759, 1060, 1302, 1555, 1887, 2117, 2366, 2692, 2988, 3265, 3497, 3879, 4151, 4464, 4704, 4984]","[189, 452, 709, 1010, 1289, 1595, 1837, 2120, 2450, 2687, 3021, 3249, 3538, 3829, 4101, 4414, 4682]","[543, 809, 1110, 1352, 1605, 1937, 2167, 2416, 2742, 3038, 3315, 3547, 3929, 4201, 4514, 4754, 5034]","[316, 599, 883, 1168, 1453, 1738, 2022, 2302, 2587, 2869, 3151, 3434, 3718, 4003, 4292, 4579, 4868]"
107,"[431, 960, 1551, 1787, 2098, 2601, 2873, 3106, 3757, 4268, 4616, 4849]","[508, 968, 1613, 1875, 2155, 2710, 2908, 3148, 3799, 4340, 4703, 4903]","[525, 979, 1629, 1890, 2172, 2721, 2915, 3169, 3815, 4358, 4712, 4913]","[622, 1065, 1748, 2045, 2301, 2873, 2932, 3259, 3913, 4457, 4756, 4943]","[415, 845, 1526, 1779, 2054, 2593, 2801, 3081, 3703, 4218, 4595, 4788]","[630, 1076, 1778, 2053, 2351, 2881, 2940, 3275, 3920, 4466, 4862, 4986]","[365, 795, 1476, 1729, 2004, 2543, 2751, 3031, 3653, 4168, 4545, 4738]","[680, 1126, 1828, 2103, 2401, 2931, 2990, 3325, 3970, 4516, 4912, 5036]","[513, 972, 1619, 1887, 2163, 2712, 2911, 3167, 3805, 4348, 4709, 4910]"
108,"[531, 987, 1482, 2000, 2473, 2970, 3502, 4018, 4465, 4772]","[575, 1048, 1528, 2046, 2527, 3016, 3557, 4074, 4514, 4863]","[646, 1082, 1576, 2109, 2560, 3065, 3605, 4120, 4566, nan]","[747, 1199, 1692, 2218, 2689, 3170, 3713, 4234, 4674, nan]","[502, 916, 1446, 1969, 2460, 2867, 3470, 3986, 4457, 4761]","[804, 1235, 1724, 2260, 2719, 3205, 3760, 4271, 4722, nan]","[452, 866, 1396, 1919, 2410, 2817, 3420, 3936, 4407, 4711]","[854.0, 1285.0, 1774.0, 2310.0, 2769.0, 3255.0, 3810.0, 4321.0, 4772.0, nan]","[610, 1059, 1554, 2070, 2548, 3034, 3574, 4090, 4536, 4915]"
109,"[173, 609, 1545, 2013, 2493, 2940, 3404, 3864, 4308, 4762]","[225, 659, 1590, 2064, 2537, 2992, 3455, 3909, 4359, 4810]","[237, 667, 1608, 2079, 2545, 3006, 3470, 3927, 4374, 4824]","[374, 801, 1745, 2212, 2676, 3147, 3604, 4067, 4516, 4885]","[156, 598, 1536, 1909, 2372, 2928, 3394, 3785, 4298, 4704]","[404, 831, 1779, 2253, 2697, 3231, 3634, 4107, 4542, 4982]","[106, 548, 1486, 1859, 2322, 2878, 3344, 3735, 4248, 4654]","[454, 881, 1829, 2303, 2747, 3281, 3684, 4157, 4592, 5032]","[231, 661, 1602, 2075, 2539, 3000, 3463, 3924, 4368, 4821]"
110,"[233, 747, 1277, 1759, 2246, 2748, 3224, 3696, 4235, 4727]","[270, 787, 1301, 1799, 2289, 2789, 3269, 3767, 4287, 4775]","[293, 809, 1340, 1822, 2316, 2816, 3292, 3792, 4316, 4809]","[420, 935, 1459, 1954, 2443, 2935, 3413, 3917, 4441, 4934]","[196, 642, 1171, 1659, 2228, 2738, 3203, 3685, 4218, 4710]","[516, 969, 1515, 1990, 2464, 3032, 3448, 3952, 4476, 4983]","[146, 592, 1121, 1609, 2178, 2688, 3153, 3635, 4168, 4660]","[566, 1019, 1565, 2040, 2514, 3082, 3498, 4002, 4526, 5033]","[284, 799, 1329, 1813, 2304, 2803, 3280, 3780, 4302, 4794]"
111,"[402, 879, 1344, 1804, 2249, 2741, 3246, 3744, 4204, 4675]","[451, 925, 1378, 1846, 2280, 2783, 3284, 3792, 4243, 4726]","[499, 960, 1430, 1872, 2350, 2842, 3358, 3834, 4283, 4768]","[617, 1095, 1565, 2004, 2449, 2945, 3455, 3952, 4417, 4890]","[387, 870, 1335, 1731, 2231, 2716, 3219, 3717, 4193, 4640]","[642, 1116, 1586, 2035, 2489, 2980, 3475, 3987, 4443, 4918]","[337, 820, 1285, 1681, 2181, 2666, 3169, 3667, 4143, 4590]","[692, 1166, 1636, 2085, 2539, 3030, 3525, 4037, 4493, 4968]","[474, 949, 1420, 1861, 2314, 2805, 3308, 3810, 4272, 4747]"
112,"[129, 501, 876, 1286, 1684, 2105, 2494, 2895, 3259, 3679, 4112, 4534]","[193, 583, 944, 1348, 1759, 2173, 2575, 2960, 3335, 3745, 4185, 4606]","[223, 596, 974, 1378, 1790, 2200, 2600, 2987, 3365, 3771, 4201, 4636]","[337, 714, 1095, 1496, 1897, 2320, 2715, 3103, 3476, 3883, 4317, 4754]","[92, 480, 860, 1242, 1669, 2069, 2485, 2843, 3231, 3642, 4075, 4509]","[369, 742, 1111, 1524, 1935, 2347, 2742, 3144, 3506, 3912, 4352, 4783]","[42, 430, 810, 1192, 1619, 2019, 2435, 2793, 3181, 3592, 4025, 4459]","[419, 792, 1161, 1574, 1985, 2397, 2792, 3194, 3556, 3962, 4402, 4833]","[208, 589, 960, 1364, 1776, 2192, 2587, 2974, 3353, 3757, 4189, 4625]"
113,"[431, 918, 1370, 1814, 2283, 2730, 3154, 3606, 4087, 4566]","[498, 970, 1439, 1898, 2352, 2785, 3221, 3667, 4133, 4611]","[524, 993, 1466, 1930, 2370, 2801, 3243, 3693, 4159, 4633]","[641, 1115, 1585, 2063, 2488, 2919, 3376, 3813, 4278, 4756]","[419, 840, 1361, 1807, 2273, 2718, 3147, 3531, 4017, 4469]","[679, 1156, 1624, 2088, 2523, 2934, 3387, 3859, 4314, 4777]","[369, 790, 1311, 1757, 2223, 2668, 3097, 3481, 3967, 4419]","[729, 1206, 1674, 2138, 2573, 2984, 3437, 3909, 4364, 4827]","[511, 980, 1451, 1916, 2355, 2788, 3230, 3679, 4145, 4620]"
114,"[291, 731, 1168, 1621, 2072, 2534, 2996, 3438, 3897, 4356, 4806]","[342, 783, 1228, 1670, 2127, 2589, 3050, 3498, 3954, 4415, 4863]","[386, 842, 1254, 1697, 2144, 2618, 3082, 3524, 3984, 4443, 4895]","[484, 933, 1370, 1807, 2274, 2728, 3189, 3635, 4098, 4553, 4899]","[243, 722, 1142, 1543, 2055, 2516, 2932, 3427, 3875, 4334, 4786]","[522, 974, 1412, 1861, 2317, 2774, 3247, 3686, 4124, 4644, 4984]","[193, 672, 1092, 1493, 2005, 2466, 2882, 3377, 3825, 4284, 4736]","[572, 1024, 1462, 1911, 2367, 2824, 3297, 3736, 4174, 4694, 5034]","[359, 804, 1243, 1686, 2142, 2605, 3066, 3515, 3970, 4429, 4881]"
115,"[422, 821, 1212, 1636, 2151, 2553, 2916, 3328, 3800, 4200, 4573]","[473, 875, 1263, 1695, 2188, 2593, 2977, 3387, 3848, 4259, 4597]","[512, 909, 1292, 1723, 2232, 2633, 3010, 3420, 3879, 4288, 4653]","[625, 1021, 1402, 1834, 2343, 2747, 3118, 3528, 3997, 4399, 4764]","[413, 781, 1197, 1611, 2125, 2539, 2883, 3320, 3779, 4192, 4544]","[645, 1058, 1432, 1863, 2373, 2771, 3149, 3553, 4013, 4431, 4789]","[363, 731, 1147, 1561, 2075, 2489, 2833, 3270, 3729, 4142, 4494]","[695, 1108, 1482, 1913, 2423, 2821, 3199, 3603, 4063, 4481, 4839]","[497, 897, 1276, 1707, 2216, 2620, 2993, 3404, 3863, 4275, 4640]"
116,"[389, 727, 1066, 1402, 1736, 2063, 2390, 2724, 3048, 3394, 3728, 4062, 4382, 4718]","[441, 777, 1112, 1448, 1779, 2108, 2435, 2769, 3100, 3436, 3772, 4104, 4432, 4764]","[464, 803, 1147, 1472, 1805, 2153, 2469, 2863, 3126, 3470, 3797, 4140, 4456, 4786]","[569, 922, 1262, 1603, 1911, 2240, 2565, 2888, 3241, 3575, 3925, 4234, 4559, 4788]","[362, 712, 1043, 1380, 1641, 2043, 2364, 2704, 3021, 3377, 3694, 4046, 4314, 4699]","[612, 966, 1300, 1641, 1964, 2277, 2606, 2970, 3274, 3635, 3935, 4314, 4592, 4804]","[312, 662, 993, 1330, 1591, 1993, 2314, 2654, 2971, 3327, 3644, 3996, 4264, 4649]","[662, 1016, 1350, 1691, 2014, 2327, 2656, 3020, 3324, 3685, 3985, 4364, 4642, 4854]","[453, 792, 1127, 1461, 1793, 2122, 2448, 2781, 3115, 3450, 3785, 4118, 4446, 4776]"
117,"[438, 923, 1417, 1899, 2374, 2851, 3335, 3809, 4294, 4764]","[490, 979, 1472, 1953, 2419, 2906, 3376, 3865, 4343, 4818]","[517, 1006, 1498, 1980, 2450, 2933, 3410, 3891, 4375, 4844]","[642, 1133, 1629, 2104, 2577, 3057, 3533, 4016, 4500, 4878]","[416, 907, 1364, 1876, 2348, 2833, 3312, 3791, 4282, 4727]","[671, 1159, 1652, 2139, 2606, 3085, 3565, 4046, 4530, 4984]","[366, 857, 1314, 1826, 2298, 2783, 3262, 3741, 4232, 4677]","[721, 1209, 1702, 2189, 2656, 3135, 3615, 4096, 4580, 5034]","[503, 992, 1485, 1966, 2438, 2919, 3397, 3879, 4363, 4830]"
118,"[80, 363, 669, 963, 1268, 1579, 1895, 2193, 2469, 2774, nan, 3374, 3635, 3950, 4244, 4536, 4834]","[136, 433, 726, 1031, 1337, 1639, 1949, 2251, 2544, 2844, nan, 3436, 3721, 4005, 4263, 4567, 4892]","[163, 454, 750, 1053, 1358, 1663, 1971, 2272, 2567, 2866, 3165, 3458, 3743, 4030, 4322, 4620, 4914]","[266, 557, 853, 1153, 1461, 1766, 2072, 2368, 2669, 2968, 3271, 3560, 3841, 4130, 4421, 4720, 4924]","[58, 342, 650, 950, 1207, 1552, 1886, 2142, 2457, 2753, nan, 3344, 3590, 3928, 4232, 4515, 4806]","[293, 578, 873, 1183, 1481, 1788, 2100, 2397, 2699, 2992, 3290, 3585, 3868, 4162, 4454, 4746, 4984]","[8.0, 292.0, 600.0, 900.0, 1157.0, 1502.0, 1836.0, 2092.0, 2407.0, 2703.0, nan, 3294.0, 3540.0, 3878.0, 4182.0, 4465.0, 4756.0]","[343, 628, 923, 1233, 1531, 1838, 2150, 2447, 2749, 3042, 3340, 3635, 3918, 4212, 4504, 4796, 5034]","[154, 445, 741, 1044, 1349, 1654, 1961, 2263, 2558, 2857, 3155, 3448, 3733, 4021, 4313, 4610, 4904]"
119,"[296, 698, 1079, 1449, 1843, 2276, 2719, 3162, 3569, 3954, 4346, 4771]","[332, 739, 1106, 1489, 1889, 2300, 2759, 3203, 3597, 3998, 4388, 4790]","[364, 762, 1142, 1519, 1913, 2341, 2791, 3229, 3633, 4019, 4409, 4840]","[488, 879, 1263, 1637, 2035, 2465, 2911, 3349, 3754, 4142, 4535, 4876]","[281, 680, 1045, 1432, 1833, 2256, 2703, 3146, 3527, 3939, 4327, 4747]","[514, 919, 1303, 1673, 2074, 2500, 2933, 3374, 3784, 4173, 4560, 4986]","[231, 630, 995, 1382, 1783, 2206, 2653, 3096, 3477, 3889, 4277, 4697]","[564, 969, 1353, 1723, 2124, 2550, 2983, 3424, 3834, 4223, 4610, 5036]","[353, 752, 1132, 1507, 1901, 2333, 2775, 3216, 3624, 4008, 4400, 4826]"
120,"[592, 1149, 1683, 2226, 2794, 3283, 3798, 4380, 4867]","[653, 1213, 1728, 2280, 2842, 3359, 3862, 4427, 4916]","[673, 1235, 1760, 2301, 2863, 3380, 3883, 4453, 4932]","[808, 1375, 1894, 2446, 2998, 3518, 4020, 4590, 4933]","[563, 1113, 1623, 2201, 2784, 3264, 3779, 4349, 4791]","[846, 1411, 1933, 2473, 3037, 3552, 4056, 4628, 4982]","[513, 1063, 1573, 2151, 2734, 3214, 3729, 4299, 4741]","[896, 1461, 1983, 2523, 3087, 3602, 4106, 4678, 5032]","[665, 1226, 1751, 2293, 2854, 3371, 3875, 4443, 4930]"
121,"[169, 547, 926, 1277, 1602, 1954, 2339, 2746, 3177, 3585, 3952, 4322, 4690]","[216, 605, 984, 1328, 1660, 2005, 2385, 2797, 3228, 3636, 4010, 4368, 4748]","[242, 631, 1011, 1355, 1687, 2032, 2412, 2823, 3255, 3664, 4037, 4395, 4775]","[343, 732, 1107, 1454, 1782, 2129, 2509, 2921, 3355, 3763, 4139, 4502, 4871]","[144, 523, 898, 1260, 1588, 1934, 2319, 2718, 3162, 3542, 3944, 4313, 4659]","[381, 761, 1165, 1479, 1822, 2164, 2543, 2954, 3386, 3791, 4183, 4536, 4905]","[94, 473, 848, 1210, 1538, 1884, 2269, 2668, 3112, 3492, 3894, 4263, 4609]","[431, 811, 1215, 1529, 1872, 2214, 2593, 3004, 3436, 3841, 4233, 4586, 4955]","[231, 620, 998, 1343, 1674, 2020, 2400, 2811, 3243, 3652, 4024, 4383, 4763]"
122,"[182, 476, 774, 1072, 1363, 1652, 1935, 2204, 2480, 2751, 3030, 3315, 3609, 3911, 4216, 4521, 4832]","[238, 531, 826, 1124, 1420, 1704, 1984, 2260, 2533, 2805, 3084, 3369, 3664, 3965, 4270, 4576, 4883]","[271, 561, 851, 1146, 1440, 1726, 2005, 2288, 2562, 2834, 3115, 3401, 3694, 3996, 4294, 4598, 4905]","[367, 663, 963, 1259, 1545, 1833, 2114, 2387, 2664, 2937, 3216, 3500, 3796, 4096, 4398, 4705, 4911]","[170, 464, 738, 1035, 1347, 1586, 1869, 2151, 2446, 2735, 3020, 3246, 3575, 3899, 4200, 4490, 4798]","[397, 697, 982, 1286, 1586, 1869, 2151, 2446, 2714, 2957, 3246, 3526, 3817, 4165, 4424, 4743, 4984]","[120, 414, 688, 985, 1297, 1536, 1819, 2101, 2396, 2685, 2970, 3196, 3525, 3849, 4150, 4440, 4748]","[447, 747, 1032, 1336, 1636, 1919, 2201, 2496, 2764, 3007, 3296, 3576, 3867, 4215, 4474, 4793, 5034]","[250, 543, 839, 1135, 1430, 1716, 1996, 2270, 2544, 2818, 3097, 3381, 3675, 3978, 4283, 4588, 4896]"
123,"[346, 743, 1142, 1542, 1936, 2338, 2723, 3116, 3520, 3907, 4294, 4687]","[399, 800, 1193, 1593, 1993, 2383, 2779, 3174, 3564, 3957, 4340, 4737]","[421, 823, 1216, 1615, 2014, 2406, 2801, 3195, 3593, 3979, 4366, 4759]","[538, 934, 1332, 1730, 2129, 2521, 2915, 3311, 3705, 4092, 4485, 4874]","[337, 732, 1128, 1530, 1928, 2304, 2714, 3092, 3507, 3890, 4284, 4671]","[558, 962, 1363, 1756, 2149, 2548, 2936, 3335, 3748, 4122, 4517, 4895]","[287, 682, 1078, 1480, 1878, 2254, 2664, 3042, 3457, 3840, 4234, 4621]","[608, 1012, 1413, 1806, 2199, 2598, 2986, 3385, 3798, 4172, 4567, 4945]","[410, 812, 1205, 1604, 2004, 2396, 2790, 3185, 3581, 3968, 4357, 4749]"
124,"[220, 632, 1040, 1454, 1867, 2293, 2706, 3114, 3543, 3927, 4338, 4737]","[284, 685, 1093, 1507, 1916, 2336, 2748, 3158, 3586, 3993, 4387, 4784]","[305, 704, 1120, 1530, 1940, 2410, 2793, 3189, 3615, 4020, 4409, 4812]","[422, 823, 1234, 1641, 2067, 2477, 2892, 3301, 3732, 4132, 4536, 4930]","[204, 624, 1031, 1444, 1829, 2270, 2673, 3106, 3529, 3917, 4272, 4724]","[455, 852, 1262, 1679, 2087, 2507, 2925, 3329, 3757, 4159, 4559, 4987]","[154, 574, 981, 1394, 1779, 2220, 2623, 3056, 3479, 3867, 4222, 4674]","[505, 902, 1312, 1729, 2137, 2557, 2975, 3379, 3807, 4209, 4609, 5037]","[297, 696, 1106, 1519, 1929, 2352, 2764, 3173, 3600, 4005, 4401, 4802]"
125,"[144, 523, 905, 1255, 1622, 1989, 2353, 2702, 3059, 3424, 3781, 4135, 4493, 4862]","[200, 587, 960, 1317, 1674, 2035, 2414, 2751, 3113, 3482, 3842, 4187, 4543, 4914]","[226, 616, 984, 1343, 1699, 2066, 2431, 2776, 3138, 3508, 3866, 4216, 4569, 4941]","[339, 723, 1102, 1453, 1811, 2169, 2539, 2889, 3251, 3615, 3978, 4318, 4680, 4944]","[123, 513, 895, 1175, 1555, 1940, 2241, 2683, 3047, 3416, 3755, 4044, 4474, 4800]","[376, 771, 1119, 1485, 1846, 2198, 2582, 2921, 3282, 3640, 3992, 4355, 4726, 4982]","[73, 463, 845, 1125, 1505, 1890, 2191, 2633, 2997, 3366, 3705, 3994, 4424, 4750]","[426, 821, 1169, 1535, 1896, 2248, 2632, 2971, 3332, 3690, 4042, 4405, 4776, 5032]","[215, 603, 975, 1333, 1689, 2052, 2416, 2763, 3127, 3497, 3854, 4200, 4558, 4928]"
126,"[432, 865, 1286, 1703, 2136, 2552, 2951, 3355, 3752, 4137, 4537]","[496, 909, 1335, 1764, 2178, 2606, 3007, 3410, 3812, 4202, 4603]","[523, 933, 1363, 1792, 2205, 2634, 3035, 3438, 3840, 4225, 4631]","[633, 1047, 1476, 1901, 2314, 2742, 3145, 3544, 3945, 4339, 4740]","[419, 834, 1218, 1681, 2109, 2527, 2896, 3324, 3736, 4120, 4522]","[664, 1080, 1508, 1932, 2347, 2773, 3182, 3573, 3985, 4369, 4770]","[369, 784, 1168, 1631, 2059, 2477, 2846, 3274, 3686, 4070, 4472]","[714, 1130, 1558, 1982, 2397, 2823, 3232, 3623, 4035, 4419, 4820]","[510, 923, 1350, 1778, 2191, 2620, 3021, 3424, 3826, 4216, 4618]"
127,"[311, 602, 923, 1233, 1537, 1826, 2155, 2500, 2878, 3266, 3626, 3981, 4338, 4734]","[350, 669, 975, 1278, 1577, 1869, 2175, 2543, 2921, 3308, 3656, 4033, 4400, 4783]","[380, 694, 992, 1302, 1608, 1913, 2227, 2570, 2943, 3331, 3696, 4049, 4417, 4801]","[481, 783, 1092, 1403, 1707, 2013, 2329, 2680, 3048, 3432, 3796, 4149, 4524, 4907]","[296, 573, 844, 1213, 1455, 1816, 2145, 2468, 2799, 3210, 3604, 3894, 4315, 4699]","[573, 820, 1120, 1455, 1732, 2084, 2359, 2702, 3117, 3456, 3832, 4179, 4557, 4984]","[246, 523, 794, 1163, 1405, 1766, 2095, 2418, 2749, 3160, 3554, 3844, 4265, 4649]","[623, 870, 1170, 1505, 1782, 2134, 2409, 2752, 3167, 3506, 3882, 4229, 4607, 5034]","[374, 688, 984, 1297, 1602, 1907, 2222, 2564, 2937, 3325, 3691, 4044, 4409, 4794]"
128,"[183, 572, 987, 1393, 1854, 2177, 2520, 3314, 3735, 4186, 4614]","[215, 644, 1026, 1463, 1957, 2227, 2602, 3345, 3799, 4236, 4672]","[227, 649, 1036, 1475, 1970, 2251, 2618, 3364, 3814, 4250, 4696]","[365, 780, 1194, 1600, 1980, 2372, 2745, 3385, 3936, 4375, 4809]","[126, 547, 965, 1327, 1844, 2116, 2476, 3238, 3682, 4124, 4591]","[435, 794, 1223, 1669, 2005, 2392, 2756, 3403, 3953, 4407, 4860]","[76, 497, 915, 1277, 1794, 2066, 2426, 3188, 3632, 4074, 4541]","[485, 844, 1273, 1719, 2055, 2442, 2806, 3453, 4003, 4457, 4910]","[224, 646, 1032, 1469, 1964, 2235, 2607, 3358, 3806, 4247, 4684]"
129,"[165, 481, 812, 1152, 1480, 1800, 2071, 2403, 2716, 3037, 3353, 3678, 3997, 4304, 4611, 4776]","[205, 529, 858, 1195, 1525, 1841, 2147, 2452, 2765, 3081, 3406, 3727, 4042, 4349, 4652, 4862]","[268, 572, 909, 1228, 1568, 1894, 2197, 2532, 2801, 3156, 3437, 3805, 4075, 4396, 4697, 4920]","[333, 644, 979, 1323, 1657, 1971, 2279, 2576, 2892, 3213, 3530, 3853, 4169, 4476, 4776, 4935]","[144, 471, 739, 1127, 1446, 1785, 2060, 2349, 2662, 3022, 3266, 3586, 3985, 4223, 4553, 4757]","[421, 739, 1016, 1354, 1702, 1986, 2304, 2605, 2923, 3267, 3579, 3897, 4223, 4499, 4810, 4984]","[94, 421, 689, 1077, 1396, 1735, 2010, 2299, 2612, 2972, 3216, 3536, 3935, 4173, 4503, 4707]","[471, 789, 1066, 1404, 1752, 2036, 2354, 2655, 2973, 3317, 3629, 3947, 4273, 4549, 4860, 5034]","[222, 546, 874, 1211, 1542, 1858, 2164, 2469, 2782, 3098, 3422, 3744, 4058, 4366, 4669, 4915]"
130,"[519, 1053, 1571, 2078, 2566, 3114, 3648, 4207, 4773]","[582, 1107, 1637, 2152, 2642, 3175, 3723, 4281, 4833]","[641, 1149, 1680, 2195, 2706, 3231, 3772, 4342, 4895]","[748, 1273, 1804, 2319, 2808, 3340, 3894, 4454, 4940]","[503, 1016, 1541, 2063, 2554, 3061, 3604, 4195, 4736]","[777, 1304, 1833, 2350, 2835, 3370, 3935, 4474, 4982]","[453, 966, 1491, 2013, 2504, 3011, 3554, 4145, 4686]","[827, 1354, 1883, 2400, 2885, 3420, 3985, 4524, 5032]","[596, 1121, 1650, 2165, 2656, 3189, 3741, 4295, 4847]"
131,"[374, 785, 1176, 1541, 1925, 2340, 2747, 3149, 3565, 4016, 4432, 4810]","[413, 836, 1219, 1585, 1971, 2382, 2797, 3193, 3605, 4061, 4482, 4862]","[442, 860, 1244, 1612, 1997, 2408, 2823, 3217, 3634, 4085, 4508, 4885]","[551, 971, 1355, 1717, 2107, 2515, 2932, 3331, 3742, 4197, 4618, 4903]","[364, 777, 1147, 1505, 1915, 2322, 2718, 3115, 3554, 4006, 4406, 4789]","[585, 1001, 1386, 1751, 2132, 2550, 2956, 3354, 3775, 4232, 4647, 4986]","[314, 727, 1097, 1455, 1865, 2272, 2668, 3065, 3504, 3956, 4356, 4739]","[635, 1051, 1436, 1801, 2182, 2600, 3006, 3404, 3825, 4282, 4697, 5036]","[427, 845, 1229, 1596, 1982, 2393, 2807, 3203, 3618, 4072, 4492, 4872]"
132,"[474, 955, 1434, 1887, 2381, 2862, 3327, 3843, 4314, 4770]","[523, 995, 1480, 1958, 2436, 2915, 3402, 3890, 4360, 4822]","[543, 1032, 1505, 1975, 2466, 2939, 3426, 3911, 4384, 4844]","[677, 1146, 1622, 2111, 2590, 3072, 3564, 4054, 4523, 4851]","[411, 891, 1367, 1876, 2352, 2836, 3322, 3822, 4277, 4685]","[710, 1173, 1665, 2137, 2636, 3109, 3597, 4076, 4550, 4985]","[361, 841, 1317, 1826, 2302, 2786, 3272, 3772, 4227, 4635]","[760, 1223, 1715, 2187, 2686, 3159, 3647, 4126, 4600, 5035]","[534, 1008, 1490, 1968, 2444, 2927, 3416, 3901, 4371, 4833]"
133,"[328, 612, 901, 1193, 1480, 1756, 2036, 2320, 2604, 2889, 3174, 3456, 3728, 4015, 4298, 4587, 4874]","[393, 678, 966, 1250, 1533, 1813, 2093, 2379, 2667, 2954, 3237, 3519, 3798, 4079, 4364, 4652, 4898]","[415, 700, 988, 1272, 1555, 1834, 2115, 2401, 2690, 2975, 3259, 3541, 3820, 4101, 4386, 4674, 4940]","[504, 789, 1092, 1362, 1647, 1923, 2207, 2493, 2779, 3064, 3361, 3635, 3910, 4193, 4478, 4763, nan]","[312, 596, 887, 1141, 1409, 1698, 1973, 2296, 2588, 2868, 3139, 3400, 3711, 3998, 4278, 4560, 4809]","[540, 830, 1118, 1409, 1698, 1969, 2242, 2530, 2815, 3139, 3385, 3658, 3949, 4233, 4520, 4809, nan]","[262, 546, 837, 1091, 1359, 1648, 1923, 2246, 2538, 2818, 3089, 3350, 3661, 3948, 4228, 4510, 4759]","[590.0, 880.0, 1168.0, 1459.0, 1748.0, 2019.0, 2292.0, 2580.0, 2865.0, 3189.0, 3435.0, 3708.0, 3999.0, 4283.0, 4570.0, 4859.0, nan]","[405, 690, 978, 1262, 1545, 1825, 2105, 2392, 2680, 2966, 3249, 3531, 3810, 4092, 4376, 4664, 4934]"
134,"[343, 680, 1039, 1408, 1762, 2114, 2468, 2825, 3211, 3565, 3939, 4286, 4656, 4825]","[397, 734, 1087, 1442, 1796, 2158, 2513, 2866, 3246, 3597, 3976, 4327, 4689, 4893]","[422, 759, 1112, 1469, 1829, 2186, 2539, 2904, 3273, 3644, 4007, 4358, 4714, 4917]","[532, 870, 1226, 1574, 1941, 2291, 2645, 3011, 3392, 3753, 4110, 4462, 4825, 4924]","[334, 671, 1029, 1369, 1753, 2028, 2428, 2806, 3189, 3519, 3902, 4273, 4543, 4796]","[575, 894, 1255, 1639, 1965, 2324, 2688, 3059, 3424, 3787, 4154, 4490, 4848, 4983]","[284, 621, 979, 1319, 1703, 1978, 2378, 2756, 3139, 3469, 3852, 4223, 4493, 4746]","[625, 944, 1305, 1689, 2015, 2374, 2738, 3109, 3474, 3837, 4204, 4540, 4898, 5033]","[409, 747, 1099, 1457, 1816, 2171, 2526, 2890, 3261, 3631, 3992, 4343, 4702, 4912]"
135,"[213, 699, 1198, 1725, 2252, 2741, 3228, 3741, 4261, 4760]","[255, 758, 1254, 1771, 2273, 2794, 3294, 3776, 4297, 4801]","[298, 784, 1278, 1823, 2332, 2820, 3376, 3834, 4402, 4835]","[406, 898, 1389, 1919, 2456, 2939, 3437, 3949, 4458, 4839]","[197, 679, 1186, 1696, 2227, 2711, 3213, 3680, 4235, 4727]","[453, 950, 1490, 1938, 2489, 2969, 3479, 3992, 4503, 4982]","[147, 629, 1136, 1646, 2177, 2661, 3163, 3630, 4185, 4677]","[503, 1000, 1540, 1988, 2539, 3019, 3529, 4042, 4553, 5032]","[286, 772, 1268, 1801, 2319, 2808, 3309, 3822, 4338, 4823]"
136,"[305, 655, 1006, 1363, 1711, 2063, 2414, 2759, 3111, 3459, 3814, 4164, 4530, 4874]","[358, 703, 1051, 1410, 1758, 2107, 2452, 2810, 3157, 3514, 3867, 4219, 4572, 4915]","[382, 728, 1077, 1435, 1786, 2135, 2487, 2836, 3186, 3537, 3894, 4244, 4598, 4942]","[490, 829, 1179, 1537, 1891, 2232, 2595, 2932, 3289, 3644, 3995, 4351, 4704, 4945]","[286, 628, 984, 1333, 1681, 2033, 2374, 2729, 3087, 3417, 3801, 4141, 4504, 4787]","[522, 866, 1224, 1582, 1927, 2268, 2626, 2972, 3336, 3681, 4029, 4392, 4727, 4982]","[236, 578, 934, 1283, 1631, 1983, 2324, 2679, 3037, 3367, 3751, 4091, 4454, 4737]","[572, 916, 1274, 1632, 1977, 2318, 2676, 3022, 3386, 3731, 4079, 4442, 4777, 5032]","[371, 717, 1066, 1426, 1774, 2122, 2474, 2824, 3174, 3529, 3882, 4234, 4584, 4929]"
137,"[337, 862, 1374, 1824, 2301, 2892, 3455, 3981, 4495]","[391, 904, 1426, 1874, 2337, 2927, 3501, 4008, 4549]","[416, 946, 1447, 1892, 2374, 2965, 3520, 4049, 4567]","[549, 1071, 1583, 2027, 2511, 3092, 3659, 4187, 4704]","[317, 826, 1364, 1782, 2290, 2857, 3416, 3966, 4471]","[576, 1102, 1612, 2059, 2538, 3125, 3683, 4228, 4733]","[267, 776, 1314, 1732, 2240, 2807, 3366, 3916, 4421]","[626, 1152, 1662, 2109, 2588, 3175, 3733, 4278, 4783]","[399, 924, 1432, 1881, 2360, 2948, 3509, 4037, 4556]"
138,"[150, 661, 1122, 1642, 2180, 2687, 3164, 3715, 4252, 4796]","[205, 690, 1188, 1698, 2235, 2739, 3228, 3761, 4297, 4857]","[240, 747, 1220, 1731, 2264, 2769, 3266, 3798, 4347, 4885]","[375, 885, 1362, 1856, 2403, 2917, 3395, 3934, 4483, 4906]","[79, 620, 1092, 1624, 2168, 2651, 3154, 3675, 4220, 4767]","[408, 918, 1393, 1900, 2435, 2940, 3433, 4025, 4520, 4983]","[29, 570, 1042, 1574, 2118, 2601, 3104, 3625, 4170, 4717]","[458, 968, 1443, 1950, 2485, 2990, 3483, 4075, 4570, 5033]","[226, 733, 1210, 1715, 2252, 2765, 3251, 3783, 4334, 4869]"
139,"[289, 581, 854, 1141, 1416, 1694, 1974, 2272, 2556, 2854, 3137, 3412, 3680, 3958, 4237, 4536, 4834]","[332, 626, 897, 1181, 1462, 1737, 2022, 2322, 2611, 2895, 3164, 3457, 3732, 4002, 4282, 4575, 4876]","[356, 645, 926, 1204, 1481, 1759, 2046, 2341, 2636, 2924, 3203, 3470, 3751, 4025, 4308, 4599, 4899]","[442, 734, 1016, 1295, 1569, 1850, 2144, 2435, 2726, 3017, 3297, 3568, 3838, 4119, 4400, 4687, 4925]","[275, 568, 779, 1053, 1333, 1655, 1945, 2239, 2549, 2827, 3055, 3352, 3642, 3878, 4213, 4477, 4822]","[474, 779, 1053, 1326, 1607, 1888, 2172, 2481, 2763, 3054, 3352, 3642, 3878, 4143, 4441, 4725, 4987]","[225, 518, 729, 1003, 1283, 1605, 1895, 2189, 2499, 2777, 3005, 3302, 3592, 3828, 4163, 4427, 4772]","[524, 829, 1103, 1376, 1657, 1938, 2222, 2531, 2813, 3104, 3402, 3692, 3928, 4193, 4491, 4775, 5037]","[344, 632, 913, 1192, 1469, 1746, 2034, 2329, 2623, 2912, 3190, 3465, 3738, 4012, 4295, 4587, 4887]"
140,"[392, 862, 1333, 1798, 2238, 2670, 3067, 3460, 3841, 4243, 4689]","[440, 887, 1366, 1855, 2302, 2718, 3125, 3512, 3899, 4294, 4727]","[467, 949, 1423, 1885, 2324, 2752, 3153, 3535, 3926, 4328, 4760]","[583, 1066, 1544, 2004, 2445, 2867, 3275, 3654, 4048, 4450, 4885]","[367, 836, 1317, 1786, 2227, 2646, 3053, 3433, 3829, 4222, 4651]","[634, 1098, 1581, 2034, 2493, 2909, 3301, 3701, 4096, 4482, 4924]","[317, 786, 1267, 1736, 2177, 2596, 3003, 3383, 3779, 4172, 4601]","[684, 1148, 1631, 2084, 2543, 2959, 3351, 3751, 4146, 4532, 4974]","[454, 933, 1409, 1869, 2311, 2739, 3137, 3522, 3913, 4315, 4748]"
141,"[334, 685, 1041, 1230, 1780, 2138, 2495, 2689, 3228, 3580, 3937, 4127, 4662]","[364, 727, 1087, 1282, 1828, 2187, 2529, 2747, 3253, 3617, 3965, 4163, 4691]","[410, 764, 1122, 1393, 1859, 2215, 2575, 2842, 3302, 3657, 4014, 4315, 4734]","[527, 883, 1230, 1477, 1987, 2330, 2689, 2926, 3413, 3769, 4127, 4362, 4854]","[321, 674, 1029, 1168, 1764, 2125, 2462, 2660, 3212, 3489, 3911, 4103, 4645]","[564, 912, 1318, 1512, 2014, 2361, 2770, 2963, 3456, 3804, 4207, 4396, 4883]","[271, 624, 979, 1118, 1714, 2075, 2412, 2610, 3162, 3439, 3861, 4053, 4595]","[614, 962, 1368, 1562, 2064, 2411, 2820, 3013, 3506, 3854, 4257, 4446, 4933]","[399, 753, 1106, 1337, 1847, 2205, 2562, 2785, 3292, 3646, 4000, 4221, 4723]"
142,"[373, 879, 1376, 1830, 2266, 2735, 3248, 3724, 4210, 4674]","[463, 940, 1448, 1908, 2359, 2820, 3311, 3807, 4292, 4745]","[497, 990, 1478, 1955, 2399, 2867, 3353, 3844, 4331, 4788]","[588, 1072, 1570, 2033, 2481, 2958, 3450, 3940, 4410, 4880]","[325, 838, 1339, 1813, 2232, 2727, 3208, 3681, 4183, 4644]","[622, 1115, 1598, 2067, 2518, 2995, 3485, 3982, 4449, 4908]","[275, 788, 1289, 1763, 2182, 2677, 3158, 3631, 4133, 4594]","[672, 1165, 1648, 2117, 2568, 3045, 3535, 4032, 4499, 4958]","[468, 957, 1455, 1913, 2364, 2837, 3329, 3822, 4296, 4762]"
143,"[489, 914, 1331, 1776, 2239, 2710, nan, 3619, 4053, 4453, 4817]","[556, 981, 1393, 1844, 2307, 2778, 3156, 3634, 4115, 4519, 4866]","[587, 1010, 1423, 1873, 2338, 2806, 3261, 3713, 4144, 4557, nan]","[711, 1134, 1545, 1995, 2463, 2925, 3385, 3833, 4270, 4670, nan]","[473, 901, 1317, 1749, 2214, 2686, nan, 3588, 4030, 4442, 4753]","[738, 1169, 1574, 2033, 2497, 2961, 3421, 3864, 4298, 4702, nan]","[423.0, 851.0, 1267.0, 1699.0, 2164.0, 2636.0, nan, 3538.0, 3980.0, 4392.0, 4703.0]","[788.0, 1219.0, 1624.0, 2083.0, 2547.0, 3011.0, 3471.0, 3914.0, 4348.0, 4752.0, nan]","[575, 999, 1411, 1862, 2325, 2795, 3250, 3700, 4132, 4537, 4881]"
144,"[119, 538, 943, 1363, 1787, 2175, 2592, 2991, 3388, 3775, 4175, 4562, 4842]","[170, 571, 990, 1386, 1830, 2227, 2613, 3040, 3437, 3806, 4214, 4591, 4924]","[201, 620, 1025, 1439, 1856, 2264, 2668, 3074, 3468, 3856, 4251, 4638, 4937]","[303, 722, 1129, 1550, 1957, 2371, 2773, 3181, 3573, 3962, 4357, 4746, 4940]","[106, 507, 903, 1354, 1712, 2155, 2583, 2977, 3374, 3750, 4130, 4544, 4828]","[340, 753, 1167, 1578, 1996, 2399, 2810, 3247, 3609, 4012, 4385, 4781, 4986]","[56, 457, 853, 1304, 1662, 2105, 2533, 2927, 3324, 3700, 4080, 4494, 4778]","[390, 803, 1217, 1628, 2046, 2449, 2860, 3297, 3659, 4062, 4435, 4831, 5036]","[189, 608, 1013, 1428, 1846, 2252, 2656, 3059, 3456, 3845, 4238, 4627, 4933]"
145,"[241, 624, 1011, 1410, 1789, 2187, 2579, 2988, 3394, 3778, 4145, 4508, 4834]","[299, 682, 1074, 1467, 1858, 2251, 2637, 3046, 3453, 3837, 4204, 4573, 4912]","[326, 724, 1101, 1495, 1881, 2267, 2664, 3094, 3480, 3860, 4230, 4602, 4937]","[433, 821, 1210, 1604, 1995, 2380, 2772, 3188, 3592, 3965, 4339, 4707, 4939]","[222, 604, 989, 1387, 1776, 2157, 2549, 2965, 3369, 3758, 4126, 4478, 4825]","[484, 845, 1244, 1638, 2028, 2401, 2797, 3208, 3617, 4002, 4365, 4745, 4986]","[172, 554, 939, 1337, 1726, 2107, 2499, 2915, 3319, 3708, 4076, 4428, 4775]","[534, 895, 1294, 1688, 2078, 2451, 2847, 3258, 3667, 4052, 4415, 4795, 5036]","[312, 694, 1087, 1480, 1870, 2253, 2649, 3060, 3465, 3850, 4215, 4588, 4914]"
146,"[211, 685, 1152, 1596, 2037, 2474, 2927, 3355, 3809, 4277, 4734]","[339, 812, 1277, 1718, 2155, 2592, 3041, 3480, 3937, 4402, 4805]","[366, 840, 1304, 1745, 2185, 2622, 3070, 3508, 3964, 4431, 4886]","[492, 965, 1424, 1868, 2304, 2738, 3195, 3629, 4092, 4554, 4895]","[201, 676, 1137, 1579, 2027, 2459, 2910, 3344, 3803, 4264, 4718]","[533, 1001, 1463, 1916, 2335, 2779, 3218, 3652, 4125, 4593, 4984]","[151, 626, 1087, 1529, 1977, 2409, 2860, 3294, 3753, 4214, 4668]","[583, 1051, 1513, 1966, 2385, 2829, 3268, 3702, 4175, 4643, 5034]","[355, 829, 1293, 1736, 2170, 2612, 3061, 3495, 3953, 4420, 4874]"
147,"[400, 923, 1413, 1943, 2516, 3069, 3624, 4129, 4664]","[436, 967, 1468, 1997, 2553, 3117, 3654, 4196, 4722]","[480, 992, 1492, 2026, 2586, 3156, 3697, 4221, 4747]","[594, 1112, 1610, 2152, 2705, 3275, 3815, 4332, 4873]","[388, 901, 1403, 1880, 2491, 3057, 3540, 4105, 4605]","[628, 1146, 1653, 2179, 2744, 3307, 3849, 4371, 4982]","[338, 851, 1353, 1830, 2441, 3007, 3490, 4055, 4555]","[678, 1196, 1703, 2229, 2794, 3357, 3899, 4421, 5032]","[466, 983, 1482, 2013, 2577, 3142, 3687, 4207, 4738]"
148,"[137, 627, 1121, 1605, 2087, 2575, 3092, 3596, 4111, 4636]","[162, 664, 1152, 1637, 2121, 2615, 3126, 3629, 4136, 4671]","[205, 723, 1199, 1680, 2193, 2655, 3164, 3692, 4194, 4705]","[302, 803, 1299, 1778, 2272, 2751, 3270, 3772, 4278, 4816]","[127, 616, 1102, 1510, 2068, 2566, 3081, 3565, 4033, 4595]","[349, 871, 1376, 1824, 2294, 2801, 3316, 3839, 4319, 4851]","[77, 566, 1052, 1460, 2018, 2516, 3031, 3515, 3983, 4545]","[399, 921, 1426, 1874, 2344, 2851, 3366, 3889, 4369, 4901]","[176, 679, 1168, 1653, 2135, 2629, 3140, 3644, 4152, 4685]"
149,"[452, 880, 1337, 1676, 2054, 2405, 2767, 3103, 3453, 3857, 4257, 4644]","[515, 945, 1356, 1746, 2121, 2476, 2831, 3171, 3537, 3942, 4283, 4722]","[549, 969, 1384, 1777, 2148, 2504, 2862, 3199, 3569, 3976, 4356, 4752]","[664, 1082, 1494, 1886, 2246, 2608, 2964, 3303, 3662, 4087, 4469, 4853]","[434, 852, 1330, 1628, 2020, 2396, 2724, 3087, 3445, 3849, 4231, 4635]","[696, 1109, 1514, 1913, 2297, 2639, 2995, 3330, 3704, 4150, 4501, 4889]","[384, 802, 1280, 1578, 1970, 2346, 2674, 3037, 3395, 3799, 4181, 4585]","[746, 1159, 1564, 1963, 2347, 2689, 3045, 3380, 3754, 4200, 4551, 4939]","[536, 957, 1367, 1760, 2133, 2490, 2844, 3183, 3552, 3963, 4343, 4734]"
150,"[64, 546, 1016, 1483, 1924, 2397, 2861, 3329, 3799, 4272, 4720]","[140, 581, 1054, 1537, 1983, 2405, 2873, 3385, 3833, 4326, 4785]","[161, 630, 1100, 1567, 2026, 2483, 2946, 3414, 3884, 4358, 4818]","[295, 769, 1230, 1700, 2154, 2614, 3074, 3547, 4019, 4489, 4840]","[-12, 525, 996, 1467, 1899, 2375, 2802, 3319, 3777, 4264, 4687]","[328, 797, 1260, 1729, 2190, 2640, 3115, 3577, 4052, 4523, 4985]","[-62, 475, 946, 1417, 1849, 2325, 2752, 3269, 3727, 4214, 4637]","[378, 847, 1310, 1779, 2240, 2690, 3165, 3627, 4102, 4573, 5035]","[151, 621, 1091, 1558, 2015, 2470, 2936, 3404, 3876, 4350, 4807]"
151,"[395, 835, 1251, 1669, 2123, 2526, 2946, 3356, 3790, 4252, 4674]","[442, 878, 1279, 1711, 2137, 2558, 2985, 3403, 3824, 4279, 4717]","[464, 915, 1315, 1752, 2169, 2582, 3010, 3423, 3861, 4304, 4740]","[596, 1039, 1449, 1869, 2301, 2714, 3140, 3548, 3985, 4435, 4873]","[386, 818, 1222, 1645, 2114, 2500, 2926, 3332, 3778, 4179, 4661]","[619, 1070, 1493, 1909, 2325, 2766, 3172, 3577, 4024, 4461, 4890]","[336, 768, 1172, 1595, 2064, 2450, 2876, 3282, 3728, 4129, 4611]","[669, 1120, 1543, 1959, 2375, 2816, 3222, 3627, 4074, 4511, 4940]","[454, 889, 1306, 1731, 2161, 2573, 3000, 3414, 3847, 4292, 4731]"
152,"[417, 886, 1343, 1838, 2350, 2806, 3262, 3724, 4213, 4692]","[462, 920, 1391, 1882, 2394, 2850, 3308, 3774, 4262, 4745]","[487, 962, 1416, 1907, 2419, 2878, 3336, 3799, 4287, 4769]","[620, 1095, 1549, 2040, 2553, 3012, 3458, 3933, 4419, 4907]","[363, 875, 1310, 1768, 2332, 2726, 3248, 3713, 4207, 4680]","[654, 1128, 1577, 2068, 2579, 3038, 3502, 3963, 4453, 4931]","[313, 825, 1260, 1718, 2282, 2676, 3198, 3663, 4157, 4630]","[704, 1178, 1627, 2118, 2629, 3088, 3552, 4013, 4503, 4981]","[475, 950, 1401, 1893, 2405, 2866, 3321, 3785, 4273, 4755]"
153,"[174, 686, 1174, 1693, 2231, 2756, 3260, 3746, 4254, 4754]","[231, 714, 1190, 1732, 2262, 2799, 3307, 3793, 4304, 4783]","[295, 772, 1264, 1783, 2323, 2847, 3363, 3843, 4350, 4859]","[397, 902, 1391, 1920, 2449, 2979, 3478, 3959, 4469, 4901]","[77, 649, 1164, 1658, 2212, 2724, 3227, 3709, 4227, 4689]","[428, 929, 1417, 1943, 2479, 3001, 3514, 3996, 4507, 4982]","[27, 599, 1114, 1608, 2162, 2674, 3177, 3659, 4177, 4639]","[478, 979, 1467, 1993, 2529, 3051, 3564, 4046, 4557, 5032]","[241, 749, 1235, 1757, 2295, 2822, 3325, 3810, 4313, 4814]"
154,"[585, 1092, 1580, 2098, 2613, 3129, 3618, 4113, 4639]","[629, 1141, 1616, 2114, 2655, 3152, 3670, 4148, 4667]","[661, 1160, 1647, 2162, 2683, 3202, 3694, 4189, 4715]","[788, 1296, 1769, 2289, 2809, 3337, 3818, 4315, 4849]","[572, 1076, 1545, 2074, 2582, 3114, 3527, 4102, 4624]","[822, 1316, 1809, 2327, 2855, 3363, 3855, 4356, 4889]","[522, 1026, 1495, 2024, 2532, 3064, 3477, 4052, 4574]","[872, 1366, 1859, 2377, 2905, 3413, 3905, 4406, 4939]","[652, 1151, 1634, 2152, 2673, 3190, 3682, 4179, 4706]"
155,"[112, 531, 918, 1304, 1740, 2191, 2652, 3109, 3539, 3986, 4426, 4884]","[150, 570, 956, 1345, 1778, 2233, 2694, 3150, 3586, 4028, 4472, 4915]","[176, 598, 986, 1370, 1811, 2258, 2725, 3181, 3615, 4053, 4499, nan]","[304, 724, 1105, 1498, 1934, 2382, 2850, 3310, 3728, 4182, 4624, nan]","[87, 519, 897, 1288, 1724, 2173, 2623, 3081, 3528, 3964, 4402, 4875]","[327, 757, 1137, 1545, 1962, 2417, 2875, 3335, 3779, 4220, 4660, nan]","[37, 469, 847, 1238, 1674, 2123, 2573, 3031, 3478, 3914, 4352, 4825]","[377.0, 807.0, 1187.0, 1595.0, 2012.0, 2467.0, 2925.0, 3385.0, 3829.0, 4270.0, 4710.0, nan]","[165, 587, 968, 1360, 1794, 2246, 2707, 3163, 3600, 4040, 4487, 4933]"
156,"[464, 890, 1307, 1748, 2190, 2633, 3063, 3507, 3918, 4358, 4803]","[528, 922, 1381, 1821, 2258, 2689, 3127, 3570, 3963, 4443, 4870]","[556, 978, 1409, 1850, 2278, 2718, 3154, 3584, 4029, 4458, 4895]","[669, 1091, 1526, 1972, 2412, 2828, 3273, 3707, 4141, 4565, 4914]","[431, 821, 1283, 1727, 2150, 2602, 3016, 3490, 3906, 4349, 4766]","[701, 1133, 1554, 2002, 2433, 2858, 3293, 3737, 4172, 4607, 4984]","[381, 771, 1233, 1677, 2100, 2552, 2966, 3440, 3856, 4299, 4716]","[751, 1183, 1604, 2052, 2483, 2908, 3343, 3787, 4222, 4657, 5034]","[540, 962, 1393, 1833, 2274, 2701, 3137, 3581, 4012, 4445, 4880]"
157,"[128, 481, 840, 1203, 1562, 1929, 2289, 2655, 3003, 3373, 3750, 4116, 4482, 4850]","[184, 539, 896, 1257, 1619, 1986, 2340, 2703, 3060, 3427, 3802, 4173, 4538, 4903]","[209, 560, 916, 1277, 1639, 2006, 2371, 2731, 3088, 3450, 3828, 4198, 4556, 4931]","[323, 677, 1025, 1385, 1745, 2112, 2478, 2829, 3201, 3566, 3930, 4305, 4667, 4937]","[118, 472, 750, 1134, 1529, 1918, 2277, 2642, 2935, 3336, 3739, 4086, 4467, 4835]","[344, 698, 1071, 1456, 1778, 2150, 2545, 2870, 3233, 3587, 3971, 4360, 4718, 4982]","[68, 422, 700, 1084, 1479, 1868, 2227, 2592, 2885, 3286, 3689, 4036, 4417, 4785]","[394, 748, 1121, 1506, 1828, 2200, 2595, 2920, 3283, 3637, 4021, 4410, 4768, 5032]","[198, 552, 911, 1271, 1632, 1999, 2358, 2718, 3073, 3442, 3816, 4184, 4550, 4917]"
158,"[338, 749, 1136, 1544, 1959, 2479, 3000, 3478, 3901, 4316, 4749]","[386, 778, 1168, 1568, 2020, 2541, 3037, 3506, 3927, 4373, 4808]","[423, 838, 1224, 1631, 2047, 2570, 3091, 3566, 3979, 4406, 4836]","[550, 954, 1340, 1749, 2163, 2688, 3214, 3683, 4105, 4518, nan]","[326, 737, 1125, 1489, 1928, 2470, 2990, 3465, 3885, 4305, 4739]","[577, 992, 1383, 1837, 2204, 2722, 3245, 3728, 4135, 4558, nan]","[276, 687, 1075, 1439, 1878, 2420, 2940, 3415, 3835, 4255, 4689]","[627.0, 1042.0, 1433.0, 1887.0, 2254.0, 2772.0, 3295.0, 3778.0, 4185.0, 4608.0, nan]","[412, 826, 1213, 1620, 2038, 2557, 3078, 3555, 3968, 4394, 4827]"
159,"[435, 884, 1335, 1779, 2222, 2624, 3023, 3403, 3838, 4317, 4802]","[453, 921, 1374, 1809, 2260, 2666, 3049, 3437, 3861, 4342, 4831]","[490, 942, 1395, 1840, 2281, 2701, 3081, 3459, 3894, 4378, 4857]","[609, 1074, 1515, 1956, 2396, 2824, 3197, 3590, 4010, 4489, 4859]","[423, 866, 1295, 1702, 2130, 2613, 2926, 3359, 3770, 4246, 4783]","[650, 1114, 1557, 1999, 2408, 2847, 3235, 3619, 4047, 4533, 4984]","[373, 816, 1245, 1652, 2080, 2563, 2876, 3309, 3720, 4196, 4733]","[700, 1164, 1607, 2049, 2458, 2897, 3285, 3669, 4097, 4583, 5034]","[479, 933, 1387, 1832, 2273, 2683, 3062, 3450, 3875, 4354, 4848]"
160,"[345, 777, 1206, 1625, 2050, 2494, 2929, 3365, 3802, 4242, 4684]","[405, 826, 1259, 1680, 2110, 2551, 2988, 3413, 3857, 4299, 4737]","[431, 852, 1286, 1705, 2158, 2588, 3028, 3439, 3904, 4324, 4763]","[554, 977, 1408, 1831, 2261, 2694, 3136, 3567, 4003, 4448, 4885]","[335, 757, 1185, 1601, 2036, 2471, 2902, 3354, 3770, 4231, 4655]","[583, 1008, 1441, 1862, 2297, 2735, 3173, 3598, 4037, 4483, 4914]","[285, 707, 1135, 1551, 1986, 2421, 2852, 3304, 3720, 4181, 4605]","[633, 1058, 1491, 1912, 2347, 2785, 3223, 3648, 4087, 4533, 4964]","[421, 842, 1276, 1696, 2125, 2565, 3002, 3429, 3871, 4314, 4752]"
161,"[418, 782, 1124, 1480, 1800, 2149, 2521, 2803, 3128, 3441, 3784, 4115, 4452, 4745]","[479, 824, 1178, 1528, 1871, 2198, 2528, 2852, 3174, 3502, 3830, 4159, 4496, 4818]","[504, 861, 1198, 1563, 1899, 2224, 2561, 2876, 3202, 3522, 3850, 4174, 4521, 4871]","[612, 961, 1310, 1660, 2010, 2334, 2664, 2985, 3311, 3641, 3960, 4312, 4630, 4895]","[380, 695, 1111, 1389, 1733, 2123, 2513, 2767, 3102, 3403, 3768, 4081, 4443, 4704]","[622, 1046, 1389, 1693, 2030, 2353, 2730, 3021, 3330, 3663, 3990, 4324, 4663, 4985]","[330, 645, 1061, 1339, 1683, 2073, 2463, 2717, 3052, 3353, 3718, 4031, 4393, 4654]","[672, 1096, 1439, 1743, 2080, 2403, 2780, 3071, 3380, 3713, 4040, 4374, 4713, 5035]","[488, 839, 1189, 1538, 1879, 2209, 2536, 2861, 3186, 3511, 3840, 4171, 4508, 4855]"
162,"[473, 874, 1271, 1658, 2071, 2469, 2884, 3300, 3717, 4134, 4550]","[531, 925, 1319, 1717, 2121, 2524, 2933, 3347, 3767, 4186, 4605]","[573, 979, 1365, 1773, 2168, 2568, 2974, 3383, 3819, 4244, 4654]","[672, 1057, 1460, 1856, 2259, 2658, 3069, 3488, 3904, 4328, 4750]","[460, 858, 1241, 1647, 2052, 2457, 2850, 3286, 3698, 4114, 4489]","[706, 1092, 1497, 1880, 2288, 2689, 3104, 3516, 3936, 4357, 4770]","[410, 808, 1191, 1597, 2002, 2407, 2800, 3236, 3648, 4064, 4439]","[756, 1142, 1547, 1930, 2338, 2739, 3154, 3566, 3986, 4407, 4820]","[547, 940, 1336, 1733, 2138, 2539, 2948, 3364, 3783, 4202, 4621]"
163,"[544, 1090, 1679, 2319, 2901, 3228, 3521, 4137, 4747]","[601, 1145, 1734, 2373, 2956, 3331, 3575, 4191, 4802]","[628, 1159, 1758, 2394, 2979, 3342, 3602, 4212, 4824]","[765, 1310, 1897, 2534, 3114, 3521, 3747, 4354, nan]","[530, 1065, 1659, 2251, 2878, 3219, 3490, 4116, 4720]","[789, 1340, 1919, 2561, 3148, 3578, 3778, 4387, nan]","[480, 1015, 1609, 2201, 2828, 3169, 3440, 4066, 4670]","[839.0, 1390.0, 1969.0, 2611.0, 3198.0, 3628.0, 3828.0, 4437.0, nan]","[614, 1156, 1745, 2383, 2968, 3333, 3589, 4200, 4812]"
164,"[322, 727, 1121, 1507, 1903, 2286, 2682, 3093, 3494, 3897, 4316, 4709]","[375, 776, 1175, 1563, 1947, 2329, 2742, 3128, 3542, 3962, 4358, 4759]","[400, 805, 1199, 1594, 1981, 2368, 2766, 3171, 3580, 3989, 4394, 4787]","[511, 924, 1312, 1700, 2090, 2477, 2875, 3284, 3682, 4105, 4508, 4916]","[312, 719, 1114, 1485, 1865, 2217, 2667, 3057, 3485, 3879, 4292, 4700]","[547, 958, 1357, 1740, 2130, 2517, 2925, 3315, 3729, 4136, 4540, 4936]","[262, 669, 1064, 1435, 1815, 2167, 2617, 3007, 3435, 3829, 4242, 4650]","[597, 1008, 1407, 1790, 2180, 2567, 2975, 3365, 3779, 4186, 4590, 4986]","[389, 793, 1189, 1579, 1966, 2355, 2755, 3159, 3562, 3977, 4382, 4775]"
165,"[416, 843, 1254, 1670, 2098, 2523, 2949, 3388, 3847, 4273, 4688]","[462, 888, 1301, 1715, 2146, 2569, 2990, 3433, 3892, 4321, 4728]","[488, 917, 1342, 1753, 2181, 2596, 3038, 3446, 3922, 4353, 4753]","[597, 1031, 1440, 1855, 2285, 2709, 3130, 3572, 4030, 4464, 4866]","[390, 817, 1245, 1641, 2079, 2450, 2940, 3361, 3824, 4242, 4657]","[627, 1048, 1463, 1892, 2315, 2734, 3160, 3599, 4059, 4488, 4889]","[340, 767, 1195, 1591, 2029, 2400, 2890, 3311, 3774, 4192, 4607]","[677, 1098, 1513, 1942, 2365, 2784, 3210, 3649, 4109, 4538, 4939]","[473, 900, 1316, 1728, 2157, 2580, 3005, 3444, 3904, 4336, 4738]"
166,"[206, 484, 775, 1061, 1345, 1609, 1901, 2169, 2457, 2738, 3012, 3281, 3556, 3848, 4150, 4421, 4726]","[254, 534, 807, 1100, 1381, 1643, 1915, 2221, 2500, 2758, 3039, 3330, 3594, 3897, 4179, 4454, 4775]","[281, 560, 844, 1128, 1410, 1693, 1968, 2245, 2525, 2804, 3080, 3355, 3640, 3929, 4214, 4502, 4795]","[385, 660, 950, 1218, 1500, 1789, 2067, 2346, 2618, 2905, 3179, 3460, 3736, 4018, 4317, 4595, 4891]","[195, 415, 733, 977, 1288, 1542, 1857, 2125, 2399, 2718, 2946, 3269, 3491, 3774, 4108, 4414, 4646]","[415, 733, 976, 1288, 1541, 1857, 2099, 2399, 2660, 2946, 3236, 3489, 3774, 4065, 4347, 4646, 4921]","[145, 365, 683, 927, 1238, 1492, 1807, 2075, 2349, 2668, 2896, 3219, 3441, 3724, 4058, 4364, 4596]","[465, 783, 1026, 1338, 1591, 1907, 2149, 2449, 2710, 2996, 3286, 3539, 3824, 4115, 4397, 4696, 4971]","[270, 550, 832, 1116, 1396, 1677, 1957, 2237, 2514, 2791, 3066, 3345, 3628, 3916, 4203, 4492, 4783]"
167,"[149, 671, 1174, 1656, 2145, 2664, 3179, 3661, 4150, 4651]","[188, 711, 1212, 1687, 2183, 2702, 3216, 3696, 4169, 4691]","[215, 737, 1236, 1717, 2210, 2729, 3241, 3720, 4215, 4714]","[344, 874, 1368, 1844, 2340, 2862, 3374, 3857, 4347, 4850]","[119, 644, 1156, 1625, 2135, 2635, 3094, 3640, 4136, 4635]","[380, 903, 1404, 1881, 2372, 2891, 3411, 3906, 4377, 4876]","[69, 594, 1106, 1575, 2085, 2585, 3044, 3590, 4086, 4585]","[430, 953, 1454, 1931, 2422, 2941, 3461, 3956, 4427, 4926]","[199, 722, 1223, 1703, 2195, 2715, 3228, 3707, 4201, 4702]"
168,"[462, 920, 1359, 1796, 2234, 2696, 3162, 3634, 4090, 4520]","[519, 941, 1410, 1846, 2289, 2742, 3208, 3689, 4136, 4578]","[550, 992, 1440, 1872, 2317, 2776, 3244, 3719, 4162, 4609]","[686, 1120, 1570, 1996, 2441, 2896, 3369, 3835, 4294, 4731]","[412, 850, 1350, 1780, 2212, 2677, 3144, 3614, 4062, 4496]","[714, 1145, 1598, 2042, 2478, 2929, 3406, 3895, 4306, 4769]","[362, 800, 1300, 1730, 2162, 2627, 3094, 3564, 4012, 4446]","[764, 1195, 1648, 2092, 2528, 2979, 3456, 3945, 4356, 4819]","[536, 977, 1425, 1861, 2299, 2761, 3228, 3703, 4147, 4593]"
169,"[437, 624, 1242, 1625, 1817, 2425, 2774, 3051, 3737, 4128, 4302, 4852]","[483, 696, 1275, 1678, 1875, 2527, 2915, 3100, 3779, 4174, 4390, 4866]","[507, 738, 1326, 1724, 1965, 2553, 2973, 3184, 3812, 4203, 4475, 4895]","[624, 854, 1411, 1817, 2055, 2663, 3051, 3287, 3904, 4302, 4536, 4897]","[415, 588, 1196, 1563, 1784, 2414, 2763, 3032, 3627, 4096, 4291, 4787]","[701, 916, 1457, 1900, 2108, 2763, 3134, 3318, 3958, 4397, 4551, 4982]","[365, 538, 1146, 1513, 1734, 2364, 2713, 2982, 3577, 4046, 4241, 4737]","[751, 966, 1507, 1950, 2158, 2813, 3184, 3368, 4008, 4447, 4601, 5032]","[496, 725, 1295, 1692, 1932, 2542, 2925, 3166, 3791, 4189, 4420, 4889]"
170,"[124, 430, 737, 916, 1474, 1806, 2152, 2538, 2894, 3255, 3631, 4040, 4216, 4824]","[165, 476, 783, 1007, 1503, 1841, 2196, 2571, 2935, 3301, 3678, 4086, 4318, 4866]","[197, 518, 828, 1028, 1545, 1882, 2232, 2604, 2980, 3330, 3708, 4131, 4368, nan]","[295, 602, 916, 1127, 1638, 1979, 2326, 2705, 3069, 3432, 3809, 4216, 4434, nan]","[113, 338, 723, 892, 1422, 1782, 2135, 2511, 2885, 3242, 3603, 4027, 4196, 4812]","[338, 634, 1004, 1157, 1676, 1999, 2352, 2727, 3098, 3461, 3839, 4291, 4474, nan]","[63, 288, 673, 842, 1372, 1732, 2085, 2461, 2835, 3192, 3553, 3977, 4146, 4762]","[388.0, 684.0, 1054.0, 1207.0, 1726.0, 2049.0, 2402.0, 2777.0, 3148.0, 3511.0, 3889.0, 4341.0, 4524.0, nan]","[181, 493, 799, 1017, 1519, 1857, 2212, 2588, 2952, 3319, 3694, 4104, 4339, 4882]"
171,"[164, 465, 761, 1056, 1349, 1643, 1930, 2217, 2504, 2793, 3080, 3360, 3650, 3946, 4234, 4535, 4822]","[213, 480, 788, 1108, 1391, 1680, 1953, 2253, 2529, 2827, 3106, 3385, 3691, 3989, 4258, 4579, 4871]","[239, 537, 834, 1131, 1423, 1716, 2003, 2292, 2579, 2866, 3150, 3433, 3722, 4014, 4310, 4605, 4896]","[330, 633, 934, 1234, 1520, 1815, 2100, 2389, 2676, 2955, 3244, 3525, 3827, 4107, 4408, 4710, nan]","[138, 456, 753, 1042, 1341, 1634, 1905, 2193, 2441, 2731, 3007, 3290, 3638, 3886, 4224, 4505, 4754]","[399, 678, 970, 1267, 1556, 1846, 2136, 2441, 2731, 3007, 3290, 3566, 3864, 4151, 4448, 4735, nan]","[88, 406, 703, 992, 1291, 1584, 1855, 2143, 2391, 2681, 2957, 3240, 3588, 3836, 4174, 4455, 4704]","[449.0, 728.0, 1020.0, 1317.0, 1606.0, 1896.0, 2186.0, 2491.0, 2781.0, 3057.0, 3340.0, 3616.0, 3914.0, 4201.0, 4498.0, 4785.0, nan]","[231, 528, 826, 1123, 1416, 1707, 1995, 2284, 2570, 2857, 3142, 3425, 3714, 4006, 4301, 4597, 4888]"
172,"[152, 358, 666, 920, 1184, 1451, 1714, 1986, 2249, 2515, 2780, 3046, 3315, 3582, 3836, 4097, 4356, 4620, 4881]","[197, 446, 702, 956, 1230, 1499, 1772, 2033, 2300, 2572, 2830, 3105, 3369, 3636, 3875, 4153, 4397, 4668, 4931]","[229, 487, 745, 1003, 1266, 1528, 1796, 2060, 2328, 2598, 2867, 3130, 3397, 3660, 3918, 4180, 4439, 4697, 4947]","[313, 572, 833, 1090, 1354, 1618, 1884, 2149, 2415, 2685, 2959, 3220, 3483, 3749, 4009, 4273, 4533, 4785, 4948]","[105, 346, 623, 909, 1173, 1434, 1707, 1936, 2210, 2461, 2771, 2997, 3272, 3545, 3822, 4086, 4329, 4592, 4847]","[346, 602, 871, 1129, 1401, 1670, 1936, 2210, 2461, 2727, 2997, 3272, 3545, 3822, 4052, 4329, 4592, 4809, 4986]","[55, 296, 573, 859, 1123, 1384, 1657, 1886, 2160, 2411, 2721, 2947, 3222, 3495, 3772, 4036, 4279, 4542, 4797]","[396, 652, 921, 1179, 1451, 1720, 1986, 2260, 2511, 2777, 3047, 3322, 3595, 3872, 4102, 4379, 4642, 4859, 5036]","[216, 474, 733, 991, 1252, 1517, 1784, 2050, 2316, 2587, 2853, 3118, 3384, 3649, 3908, 4167, 4426, 4685, 4945]"
173,"[253, 778, 1315, 1831, 2371, 2919, 3437, 3976, 4514]","[292, 827, 1361, 1880, 2418, 2962, 3483, 4024, 4556]","[317, 903, 1389, 1902, 2463, 2987, 3516, 4075, 4578]","[447, 977, 1513, 2033, 2571, 3119, 3636, 4179, 4711]","[234, 766, 1304, 1818, 2359, 2903, 3423, 3963, 4492]","[484, 1022, 1555, 2067, 2607, 3156, 3671, 4214, 4743]","[184, 716, 1254, 1768, 2309, 2853, 3373, 3913, 4442]","[534, 1072, 1605, 2117, 2657, 3206, 3721, 4264, 4793]","[307, 840, 1378, 1893, 2433, 2978, 3497, 4038, 4569]"
174,"[473, 896, 1312, 1715, 2109, 2526, 2949, 3366, 3796, 4217, 4620]","[533, 917, 1350, 1770, 2174, 2585, 3006, 3398, 3832, 4275, 4685]","[553, 986, 1397, 1799, 2205, 2610, 3028, 3448, 3878, 4305, 4718]","[662, 1092, 1508, 1908, 2316, 2719, 3133, 3559, 3980, 4410, 4821]","[450, 872, 1285, 1708, 2079, 2491, 2910, 3334, 3738, 4201, 4592]","[710, 1123, 1545, 1941, 2354, 2764, 3173, 3584, 4014, 4453, 4863]","[400, 822, 1235, 1658, 2029, 2441, 2860, 3284, 3688, 4151, 4542]","[760, 1173, 1595, 1991, 2404, 2814, 3223, 3634, 4064, 4503, 4913]","[541, 968, 1385, 1786, 2195, 2599, 3019, 3436, 3867, 4290, 4703]"
175,"[213, 542, 868, 1184, 1479, 1783, 2111, 2440, 2768, 3089, 3419, 3726, 4027, 4337, 4650, 4831]","[264, 587, 912, 1226, 1531, 1812, 2156, 2483, 2812, 3139, 3462, 3771, 4074, 4379, 4700, 4885]","[309, 626, 968, 1263, 1567, 1876, 2195, 2543, 2867, 3186, 3503, 3829, 4110, 4420, 4746, 4926]","[396, 721, 1040, 1362, 1667, 1964, 2291, 2619, 2945, 3270, 3593, 3906, 4206, 4512, 4831, 4930]","[189, 532, 834, 1147, 1469, 1754, 2098, 2424, 2735, 3079, 3401, 3642, 3948, 4320, 4625, 4807]","[423, 746, 1072, 1385, 1692, 1992, 2315, 2641, 2971, 3305, 3621, 3929, 4231, 4536, 4907, 4984]","[139, 482, 784, 1097, 1419, 1704, 2048, 2374, 2685, 3029, 3351, 3592, 3898, 4270, 4575, 4757]","[473, 796, 1122, 1435, 1742, 2042, 2365, 2691, 3021, 3355, 3671, 3979, 4281, 4586, 4957, 5034]","[278, 602, 928, 1241, 1544, 1846, 2171, 2497, 2828, 3154, 3476, 3785, 4089, 4394, 4714, 4919]"
176,"[358, 662, 975, 1276, 1572, 1882, 2166, 2464, 2777, 3069, 3351, 3703, 3925, 4296, 4623, 4769]","[410, 717, 1028, 1338, 1635, 1930, 2221, 2520, 2823, 3132, 3440, 3728, 4045, 4356, 4661, 4872]","[441, 745, 1059, 1363, 1661, 1957, 2248, 2547, 2867, 3156, 3465, 3767, 4058, 4382, 4687, 4883]","[522, 825, 1128, 1451, 1738, 2046, 2345, 2635, 2940, 3240, 3557, 3847, 4157, 4460, 4769, 4914]","[345, 596, 900, 1265, 1506, 1808, 2143, 2411, 2707, 3006, 3340, 3694, 3918, 4222, 4543, 4747]","[532, 901, 1174, 1506, 1808, 2056, 2354, 2707, 2964, 3273, 3599, 3936, 4181, 4543, 4812, 4985]","[295, 546, 850, 1215, 1456, 1758, 2093, 2361, 2657, 2956, 3290, 3644, 3868, 4172, 4493, 4697]","[582, 951, 1224, 1556, 1858, 2106, 2404, 2757, 3014, 3323, 3649, 3986, 4231, 4593, 4862, 5035]","[423, 733, 1045, 1350, 1650, 1942, 2237, 2535, 2837, 3147, 3453, 3753, 4055, 4369, 4675, 4880]"
177,"[459, 940, 1376, 1818, 2318, 2821, 3251, 3705, 4195, 4649]","[512, 958, 1421, 1868, 2385, 2869, 3304, 3776, 4257, 4706]","[551, 1018, 1451, 1898, 2413, 2886, 3331, 3797, 4281, 4728]","[653, 1133, 1556, 2009, 2528, 3012, 3446, 3909, 4393, 4844]","[441, 903, 1332, 1807, 2309, 2813, 3211, 3680, 4185, 4640]","[702, 1166, 1595, 2038, 2570, 3044, 3477, 3939, 4439, 4870]","[391, 853, 1282, 1757, 2259, 2763, 3161, 3630, 4135, 4590]","[752, 1216, 1645, 2088, 2620, 3094, 3527, 3989, 4489, 4920]","[536, 1010, 1437, 1885, 2404, 2884, 3319, 3785, 4270, 4716]"
178,"[460, 880, 1306, 1781, 2291, 2790, 3224, 3642, 4060, 4514]","[505, 931, 1359, 1836, 2342, 2841, 3274, 3695, 4117, 4568]","[540, 958, 1390, 1866, 2370, 2870, 3302, 3723, 4145, 4609]","[650, 1074, 1506, 1978, 2485, 2995, 3424, 3837, 4256, 4707]","[442, 863, 1294, 1749, 2276, 2770, 3208, 3626, 4029, 4455]","[685, 1115, 1549, 2022, 2531, 3040, 3448, 3868, 4295, 4757]","[392, 813, 1244, 1699, 2226, 2720, 3158, 3576, 3979, 4405]","[735, 1165, 1599, 2072, 2581, 3090, 3498, 3918, 4345, 4807]","[525, 943, 1373, 1851, 2356, 2855, 3287, 3708, 4129, 4582]"
