,ECG_P_Peaks,ECG_Q_Peaks,ECG_S_Peaks,ECG_T_Peaks,ECG_P_Onsets,ECG_T_Offsets,ECG_Start,ECG_Stop,ECG_R_Peaks
0,"[405, 863, 1301, 1789, 2316, 2830, 3341, 3799, 4216, 4622]","[459, 910, 1356, 1844, 2362, 2878, 3398, 3859, 4261, 4687]","[478, 930, 1381, 1863, 2387, 2912, 3416, 3879, 4285, 4705]","[598, 1048, 1501, 1978, 2507, 3023, 3535, 3990, 4404, 4829]","[344, 829, 1291, 1763, 2284, 2812, 3270, 3777, 4157, 4612]","[620, 1098, 1525, 1989, 2519, 3065, 3573, 4029, 4457, 4852]","[294, 779, 1241, 1713, 2234, 2762, 3220, 3727, 4107, 4562]","[670, 1148, 1575, 2039, 2569, 3115, 3623, 4079, 4507, 4902]","[465, 924, 1368, 1850, 2374, 2899, 3409, 3867, 4280, 4700]"
1,"[510, 1041, 1574, 2110, 2614, 3123, 3642, 4172, 4674]","[580, 1115, 1645, 2181, 2685, 3188, 3714, 4248, 4754]","[607, 1142, 1670, 2210, 2709, 3213, 3741, 4272, 4781]","[726, 1259, 1793, 2329, 2833, 3336, 3863, 4397, 4897]","[493, 999, 1557, 2085, 2549, 3037, 3628, 4161, 4642]","[753, 1296, 1817, 2351, 2858, 3370, 3888, 4426, 4982]","[443, 949, 1507, 2035, 2499, 2987, 3578, 4111, 4592]","[803, 1346, 1867, 2401, 2908, 3420, 3938, 4476, 5032]","[593, 1128, 1659, 2195, 2697, 3203, 3728, 4261, 4766]"
2,"[594, 1011, 1415, 1827, 2246, 2725, 3192, 3662, 4127, 4587]","[650, 1069, 1443, 1883, 2259, 2763, 3244, 3681, 4179, 4645]","[675, 1094, 1497, 1909, 2285, 2804, 3273, 3740, 4204, 4670]","[785, 1208, 1608, 2015, 2386, 2921, 3379, 3847, 4310, 4780]","[578, 989, 1399, 1814, 2233, 2701, 3179, 3650, 4104, 4571]","[840, 1242, 1641, 2063, 2443, 2960, 3420, 3899, 4372, 4817]","[528, 939, 1349, 1764, 2183, 2651, 3129, 3600, 4054, 4521]","[890, 1292, 1691, 2113, 2493, 3010, 3470, 3949, 4422, 4867]","[663, 1083, 1486, 1897, 2274, 2792, 3261, 3728, 4192, 4659]"
3,"[411, 838, 1270, 1696, 2104, 2471, 2865, 3245, 3611, 3988, 4357, 4725]","[452, 879, 1307, 1736, 2148, 2525, 2915, 3290, 3655, 4036, 4391, 4773]","[465, 888, 1326, 1757, 2166, 2544, 2924, 3305, 3679, 4051, 4421, 4790]","[589, 1019, 1455, 1875, 2289, 2671, 3042, 3417, 3803, 4162, 4538, 4914]","[375, 799, 1246, 1680, 2072, 2462, 2837, 3210, 3596, 3965, 4344, 4702]","[595, 1049, 1482, 1925, 2313, 2709, 3054, 3471, 3841, 4211, 4578, 4946]","[325, 749, 1196, 1630, 2022, 2412, 2787, 3160, 3546, 3915, 4294, 4652]","[645, 1099, 1532, 1975, 2363, 2759, 3104, 3521, 3891, 4261, 4628, 4996]","[462, 886, 1318, 1750, 2158, 2536, 2922, 3302, 3677, 4043, 4412, 4783]"
4,"[304, 716, 1099, 1487, 1860, 2243, 2616, 2998, 3375, 3758, 4108, 4475, 4843]","[366, 776, 1161, 1547, 1924, 2294, 2676, 3060, 3436, 3808, 4167, 4536, 4895]","[397, 809, 1194, 1580, 1956, 2325, 2705, 3090, 3469, 3840, 4199, 4568, 4931]","[502, 909, 1299, 1689, 2060, 2425, 2811, 3198, 3572, 3950, 4309, 4672, nan]","[295, 706, 1074, 1464, 1832, 2201, 2590, 2990, 3354, 3739, 4097, 4448, 4794]","[534, 947, 1335, 1712, 2082, 2458, 2874, 3253, 3613, 3979, 4327, 4701, nan]","[245, 656, 1024, 1414, 1782, 2151, 2540, 2940, 3304, 3689, 4047, 4398, 4744]","[584.0, 997.0, 1385.0, 1762.0, 2132.0, 2508.0, 2924.0, 3303.0, 3663.0, 4029.0, 4377.0, 4751.0, nan]","[382, 793, 1179, 1565, 1940, 2310, 2693, 3076, 3453, 3825, 4183, 4553, 4917]"
5,"[498, 958, 1447, 1943, 2426, 2882, 3346, 3834, 4335, 4793]","[552, 1003, 1501, 1994, 2453, 2940, 3408, 3890, 4381, 4824]","[581, 1035, 1527, 2026, 2504, 2967, 3435, 3918, 4411, 4872]","[701, 1154, 1649, 2152, 2626, 3092, 3554, 4034, 4531, 4891]","[463, 896, 1417, 1917, 2413, 2871, 3321, 3767, 4299, 4764]","[745, 1190, 1696, 2183, 2660, 3124, 3599, 4076, 4577, 4984]","[413, 846, 1367, 1867, 2363, 2821, 3271, 3717, 4249, 4714]","[795, 1240, 1746, 2233, 2710, 3174, 3649, 4126, 4627, 5034]","[570, 1022, 1516, 2014, 2492, 2954, 3420, 3903, 4401, 4857]"
6,"[455, 904, 1348, 1811, 2250, 2697, 3146, 3603, 4056, 4537, 4822]","[495, 952, 1403, 1856, 2307, 2756, 3207, 3662, 4117, 4576, 4869]","[527, 985, 1436, 1889, 2339, 2788, 3239, 3696, 4150, 4611, 4880]","[642, 1104, 1551, 2005, 2455, 2896, 3355, 3806, 4256, 4719, 4921]","[371, 885, 1309, 1766, 2240, 2669, 3136, 3592, 4045, 4527, 4757]","[673, 1146, 1594, 2038, 2495, 2934, 3387, 3836, 4299, 4757, 4985]","[321, 835, 1259, 1716, 2190, 2619, 3086, 3542, 3995, 4477, 4707]","[723, 1196, 1644, 2088, 2545, 2984, 3437, 3886, 4349, 4807, 5035]","[510, 968, 1419, 1871, 2323, 2770, 3221, 3678, 4133, 4593, 4878]"
7,"[414, 783, 1162, 1556, 1940, 2335, 2731, 3104, 3470, 3837, 4208, 4566, 4894]","[465, 833, 1212, 1601, 1991, 2389, 2772, 3155, 3520, 3886, 4257, 4616, 4918]","[486, 854, 1248, 1629, 2012, 2404, 2799, 3168, 3535, 3915, 4270, 4632, 4941]","[598, 966, 1350, 1736, 2126, 2526, 2916, 3297, 3657, 4020, 4392, 4750, 4943]","[391, 771, 1149, 1451, 1922, 2325, 2699, 3085, 3453, 3813, 4189, 4547, 4783]","[625, 1007, 1378, 1779, 2158, 2568, 2947, 3320, 3685, 4050, 4434, 4783, 4982]","[341, 721, 1099, 1401, 1872, 2275, 2649, 3035, 3403, 3763, 4139, 4497, 4733]","[675, 1057, 1428, 1829, 2208, 2618, 2997, 3370, 3735, 4100, 4484, 4833, 5032]","[476, 844, 1224, 1613, 2002, 2400, 2792, 3163, 3531, 3898, 4267, 4627, 4928]"
8,"[134, 506, 873, 1240, 1614, 1988, 2359, 2731, 3112, 3490, 3862, 4238, 4617]","[192, 533, 907, 1297, 1671, 2042, 2410, 2785, 3168, 3541, 3913, 4295, 4669]","[219, 586, 955, 1324, 1696, 2069, 2439, 2816, 3194, 3569, 3943, 4322, 4697]","[328, 700, 1067, 1434, 1809, 2180, 2551, 2927, 3308, 3682, 4050, 4431, 4815]","[119, 490, 855, 1227, 1596, 1967, 2333, 2707, 3085, 3472, 3841, 4224, 4600]","[363, 732, 1093, 1457, 1832, 2208, 2576, 2952, 3331, 3714, 4106, 4459, 4834]","[69, 440, 805, 1177, 1546, 1917, 2283, 2657, 3035, 3422, 3791, 4174, 4550]","[413, 782, 1143, 1507, 1882, 2258, 2626, 3002, 3381, 3764, 4156, 4509, 4884]","[207, 576, 943, 1312, 1685, 2056, 2426, 2803, 3183, 3558, 3931, 4309, 4686]"
9,"[430, 900, 1371, 1846, 2307, 2776, 3239, 3721, 4196, 4666]","[484, 955, 1429, 1897, 2361, 2831, 3302, 3772, 4240, 4723]","[524, 1008, 1469, 1973, 2401, 2888, 3355, 3803, 4288, 4758]","[633, 1102, 1574, 2044, 2511, 2976, 3450, 3920, 4389, 4864]","[405, 866, 1343, 1803, 2269, 2736, 3224, 3711, 4162, 4607]","[664, 1135, 1608, 2084, 2538, 3001, 3484, 3951, 4422, 4899]","[355, 816, 1293, 1753, 2219, 2686, 3174, 3661, 4112, 4557]","[714, 1185, 1658, 2134, 2588, 3051, 3534, 4001, 4472, 4949]","[501, 970, 1443, 1914, 2378, 2846, 3319, 3790, 4262, 4738]"
10,"[471, 1014, 1579, 2118, 2719, 3172, 3741, 4297, 4851]","[527, 1077, 1640, 2194, 2725, 3242, 3814, 4374, 4924]","[571, 1106, 1668, 2218, 2750, 3278, 3841, 4401, nan]","[693, 1234, 1791, 2348, 2881, 3405, 3966, 4530, nan]","[452, 920, 1567, 2032, 2687, 3161, 3650, 4283, 4815]","[730, 1259, 1827, 2384, 2914, 3445, 4005, 4558, nan]","[402, 870, 1517, 1982, 2637, 3111, 3600, 4233, 4765]","[780.0, 1309.0, 1877.0, 2434.0, 2964.0, 3495.0, 4055.0, 4608.0, nan]","[559, 1094, 1656, 2207, 2741, 3268, 3829, 4390, 4941]"
11,"[297, 670, 1062, 1454, 1817, 2156, 2515, 2770, 3195, 3571, 4044, 4539, 4727]","[317, 723, 1124, 1488, 1853, 2217, 2561, 2902, 3245, 3619, 4151, 4578, 4820]","[356, 752, 1139, 1530, 1883, 2236, 2583, 2924, 3274, 3641, 4175, 4609, 4832]","[482, 865, 1263, 1637, 2001, 2360, 2699, 3037, 3390, 3740, 4289, 4727, 4899]","[280, 615, 1051, 1417, 1704, 2122, 2415, 2761, 3176, 3491, 4026, 4440, 4660]","[516, 897, 1274, 1704, 2054, 2415, 2739, 3081, 3491, 3789, 4333, 4798, 4982]","[230, 565, 1001, 1367, 1654, 2072, 2365, 2711, 3126, 3441, 3976, 4390, 4610]","[566, 947, 1324, 1754, 2104, 2465, 2789, 3131, 3541, 3839, 4383, 4848, 5032]","[348, 738, 1131, 1514, 1874, 2228, 2575, 2913, 3258, 3633, 4167, 4592, 4828]"
12,"[98, 633, 1135, 1635, 2109, 2547, 2991, 3416, 3707, 4340, 4767]","[128, 686, 1199, 1704, 2173, 2585, 3053, 3483, 3767, 4409, 4915]","[205, 735, 1230, 1746, 2219, 2679, 3085, 3522, 3801, 4477, 4924]","[303, 831, 1340, 1845, 2314, 2754, 3195, 3624, 3906, 4554, 4925]","[20, 555, 1074, 1623, 2093, 2536, 2969, 3398, 3658, 4321, 4765]","[338, 855, 1370, 1876, 2345, 2786, 3220, 3658, 3937, 4585, 4984]","[-30, 505, 1024, 1573, 2043, 2486, 2919, 3348, 3608, 4271, 4715]","[388, 905, 1420, 1926, 2395, 2836, 3270, 3708, 3987, 4635, 5034]","[175, 701, 1213, 1718, 2191, 2631, 3067, 3499, 3783, 4423, 4917]"
13,"[265, 749, 1276, 1757, 2266, 2789, 3260, 3773, 4250, 4731]","[313, 795, 1318, 1802, 2323, 2846, 3314, 3824, 4292, 4772]","[341, 859, 1349, 1827, 2367, 2871, 3342, 3897, 4321, 4859]","[478, 954, 1478, 1955, 2482, 3009, 3479, 3986, 4448, 4934]","[245, 717, 1238, 1676, 2248, 2767, 3228, 3753, 4143, 4676]","[504, 981, 1509, 1987, 2509, 3031, 3503, 4014, 4481, 4983]","[195, 667, 1188, 1626, 2198, 2717, 3178, 3703, 4093, 4626]","[554, 1031, 1559, 2037, 2559, 3081, 3553, 4064, 4531, 5033]","[325, 809, 1330, 1812, 2334, 2856, 3327, 3835, 4306, 4785]"
14,"[474, 937, 1387, 1833, 2291, 2743, 3202, 3656, 4097, 4537, 4841]","[540, 979, 1433, 1873, 2349, 2777, 3238, 3707, 4146, 4598, 4909]","[559, 1013, 1455, 1909, 2365, 2821, 3278, 3725, 4175, 4605, 4918]","[670, 1128, 1576, 2016, 2490, 2932, 3390, 3851, 4287, 4719, 4926]","[461, 913, 1361, 1811, 2280, 2699, 3182, 3639, 4078, 4516, 4806]","[702, 1168, 1623, 2076, 2559, 2967, 3430, 3878, 4360, 4771, 4984]","[411, 863, 1311, 1761, 2230, 2649, 3132, 3589, 4028, 4466, 4756]","[752, 1218, 1673, 2126, 2609, 3017, 3480, 3928, 4410, 4821, 5034]","[544, 1001, 1452, 1901, 2356, 2810, 3266, 3721, 4166, 4602, 4915]"
15,"[442, 917, 1384, 1855, 2316, 2774, 3233, 3717, 4229, 4730]","[481, 964, 1442, 1905, 2382, 2834, 3296, 3771, 4286, 4789]","[517, 996, 1469, 1945, 2412, 2862, 3323, 3798, 4316, 4822]","[617, 1102, 1583, 2058, 2515, 2979, 3434, 3908, 4426, 4924]","[434, 819, 1376, 1819, 2249, 2722, 3167, 3687, 4199, 4719]","[646, 1146, 1612, 2079, 2557, 3011, 3471, 3948, 4455, 4984]","[384, 769, 1326, 1769, 2199, 2672, 3117, 3637, 4149, 4669]","[696, 1196, 1662, 2129, 2607, 3061, 3521, 3998, 4505, 5034]","[496, 980, 1456, 1928, 2395, 2847, 3310, 3784, 4299, 4805]"
16,"[413, 921, 1389, 1890, 2432, 2902, 3413, 3922, 4370, 4881]","[453, 958, 1431, 1932, 2478, 2950, 3451, 3959, 4413, 4885]","[512, 1018, 1482, 1982, 2528, 3002, 3510, 4012, 4474, nan]","[618, 1129, 1593, 2092, 2639, 3110, 3614, 4121, 4581, nan]","[402, 910, 1370, 1875, 2409, 2891, 3383, 3894, 4358, 4854]","[648, 1165, 1616, 2123, 2669, 3142, 3639, 4152, 4607, nan]","[352, 860, 1320, 1825, 2359, 2841, 3333, 3844, 4308, 4804]","[698.0, 1215.0, 1666.0, 2173.0, 2719.0, 3192.0, 3689.0, 4202.0, 4657.0, nan]","[479, 986, 1451, 1955, 2497, 2971, 3473, 3979, 4439, 4916]"
17,"[391, 904, 1447, 1987, 2493, 3005, 3570, 4116, 4642]","[436, 962, 1499, 2033, 2546, 3062, 3615, 4168, 4701]","[467, 988, 1545, 2058, 2581, 3110, 3638, 4192, 4726]","[569, 1091, 1640, 2170, 2688, 3212, 3763, 4321, 4833]","[347, 880, 1415, 1884, 2483, 2976, 3533, 4071, 4573]","[613, 1155, 1686, 2210, 2732, 3237, 3880, 4341, 4873]","[297, 830, 1365, 1834, 2433, 2926, 3483, 4021, 4523]","[663, 1205, 1736, 2260, 2782, 3287, 3930, 4391, 4923]","[449, 975, 1511, 2047, 2559, 3075, 3627, 4181, 4713]"
18,"[406, 921, 1514, 2105, 2666, 3197, 3737, 4281, 4815]","[457, 974, 1568, 2158, 2721, 3250, 3786, 4330, 4863]","[489, 1005, 1598, 2189, 2752, 3282, 3818, 4361, 4894]","[594, 1117, 1712, 2300, 2864, 3393, 3923, 4473, 4905]","[379, 904, 1478, 2079, 2634, 3178, 3713, 4260, 4770]","[625, 1147, 1745, 2333, 2884, 3429, 3962, 4503, 4980]","[329, 854, 1428, 2029, 2584, 3128, 3663, 4210, 4720]","[675, 1197, 1795, 2383, 2934, 3479, 4012, 4553, 5030]","[471, 989, 1582, 2172, 2734, 3264, 3801, 4344, 4877]"
19,"[326, 787, 1282, 1770, 2243, 2720, 3207, 3659, 4124, 4597]","[370, 833, 1319, 1812, 2287, 2765, 3247, 3705, 4163, 4641]","[396, 858, 1344, 1837, 2312, 2791, 3271, 3729, 4189, 4667]","[503, 957, 1444, 1940, 2411, 2896, 3373, 3829, 4292, 4768]","[310, 768, 1258, 1744, 2218, 2698, 3177, 3636, 4102, 4574]","[539, 1004, 1493, 1989, 2456, 2908, 3433, 3880, 4333, 4813]","[260, 718, 1208, 1694, 2168, 2648, 3127, 3586, 4052, 4524]","[589, 1054, 1543, 2039, 2506, 2958, 3483, 3930, 4383, 4863]","[386, 849, 1335, 1827, 2302, 2781, 3263, 3718, 4179, 4657]"
20,"[333, 941, 1539, 2107, 2658, 3184, 3704, 4302, 4733]","[390, 995, 1590, 2168, 2694, 3244, 3754, 4325, 4822]","[417, 1021, 1613, 2193, 2746, 3269, 3779, 4385, 4845]","[540, 1130, 1724, 2302, 2855, 3382, 3886, 4493, 4874]","[319, 922, 1499, 2079, 2631, 3154, 3662, 4266, 4661]","[561, 1170, 1762, 2345, 2900, 3418, 3921, 4538, 4980]","[269, 872, 1449, 2029, 2581, 3104, 3612, 4216, 4611]","[611, 1220, 1812, 2395, 2950, 3468, 3971, 4588, 5030]","[407, 1010, 1603, 2183, 2733, 3258, 3767, 4372, 4843]"
21,"[377, 855, 1342, 1786, 2218, 2664, 3128, 3589, 4056, 4522]","[430, 914, 1390, 1832, 2274, 2716, 3182, 3644, 4098, 4567]","[460, 946, 1421, 1863, 2301, 2743, 3210, 3672, 4130, 4599]","[564, 1059, 1524, 1971, 2414, 2855, 3320, 3782, 4241, 4709]","[351, 841, 1314, 1770, 2209, 2653, 3103, 3578, 4007, 4486]","[609, 1088, 1568, 2009, 2441, 2888, 3371, 3815, 4276, 4749]","[301, 791, 1264, 1720, 2159, 2603, 3053, 3528, 3957, 4436]","[659, 1138, 1618, 2059, 2491, 2938, 3421, 3865, 4326, 4799]","[447, 931, 1407, 1849, 2287, 2730, 3196, 3658, 4116, 4586]"
22,"[129, 499, 878, 1258, 1635, 2014, 2368, 2744, 3114, 3480, 3846, 4229, 4596]","[188, 538, 934, 1285, 1688, 2065, 2395, 2802, 3173, 3538, 3899, 4278, 4656]","[210, 587, 962, 1325, 1710, 2086, 2451, 2826, 3193, 3562, 3921, 4310, 4675]","[330, 697, 1068, 1447, 1832, 2197, 2574, 2942, 3311, 3655, 4039, 4417, 4800]","[39, 478, 825, 1190, 1598, 1980, 2328, 2733, 3084, 3457, 3834, 4189, 4587]","[363, 724, 1109, 1477, 1900, 2261, 2636, 2992, 3352, 3669, 4096, 4479, 4813]","[-11, 428, 775, 1140, 1548, 1930, 2278, 2683, 3034, 3407, 3784, 4139, 4537]","[413, 774, 1159, 1527, 1950, 2311, 2686, 3042, 3402, 3719, 4146, 4529, 4863]","[201, 570, 946, 1320, 1703, 2079, 2443, 2817, 3187, 3554, 3914, 4291, 4669]"
23,"[548, 1044, 1509, 1973, 2476, 2935, 3414, 3895, 4353, 4841]","[610, 1096, 1563, 2042, 2535, 2994, 3465, 3952, 4418, 4907]","[639, 1120, 1590, 2069, 2560, 3020, 3493, 3980, 4444, 4934]","[751, 1244, 1701, 2183, 2679, 3134, 3613, 4093, 4556, nan]","[495, 980, 1439, 1944, 2460, 2918, 3372, 3875, 4323, 4774]","[786, 1260, 1732, 2214, 2704, 3164, 3633, 4123, 4585, nan]","[445, 930, 1389, 1894, 2410, 2868, 3322, 3825, 4273, 4724]","[836.0, 1310.0, 1782.0, 2264.0, 2754.0, 3214.0, 3683.0, 4173.0, 4635.0, nan]","[626, 1110, 1579, 2057, 2550, 3010, 3481, 3967, 4432, 4922]"
24,"[276, 777, 1247, 1724, 2188, 2644, 3113, 3593, 4073, 4553, 4888]","[323, 799, 1302, 1774, 2218, 2696, 3164, 3642, 4116, 4589, 4901]","[376, 861, 1342, 1828, 2283, 2743, 3219, 3682, 4165, 4637, 4913]","[467, 958, 1446, 1914, 2384, 2847, 3303, 3782, 4259, 4728, 4931]","[205, 717, 1238, 1715, 2157, 2618, 3092, 3569, 4008, 4482, 4760]","[492, 999, 1485, 1948, 2425, 2880, 3349, 3834, 4310, 4760, 4984]","[155, 667, 1188, 1665, 2107, 2568, 3042, 3519, 3958, 4432, 4710]","[542, 1049, 1535, 1998, 2475, 2930, 3399, 3884, 4360, 4810, 5034]","[336, 823, 1316, 1788, 2250, 2711, 3178, 3655, 4132, 4602, 4909]"
25,"[456, 883, 1363, 1887, 2370, 2847, 3278, 3718, 4161, 4599]","[494, 902, 1409, 1927, 2412, 2889, 3329, 3755, 4187, 4637]","[527, 958, 1448, 1973, 2459, 2920, 3360, 3797, 4242, 4676]","[629, 1053, 1547, 2067, 2550, 3014, 3458, 3892, 4342, 4781]","[430, 859, 1347, 1879, 2362, 2824, 3251, 3701, 4128, 4580]","[661, 1106, 1579, 2110, 2591, 3049, 3489, 3960, 4385, 4819]","[380, 809, 1297, 1829, 2312, 2774, 3201, 3651, 4078, 4530]","[711, 1156, 1629, 2160, 2641, 3099, 3539, 4010, 4435, 4869]","[515, 943, 1433, 1955, 2446, 2906, 3347, 3784, 4228, 4662]"
26,"[221, 711, 1214, 1709, 2214, 2702, 3211, 3736, 4229, 4705]","[273, 795, 1276, 1760, 2272, 2725, 3247, 3802, 4275, 4734]","[311, 816, 1308, 1807, 2311, 2803, 3316, 3833, 4317, 4802]","[414, 928, 1419, 1924, 2429, 2922, 3434, 3941, 4435, 4916]","[173, 691, 1201, 1699, 2201, 2640, 3188, 3707, 4169, 4682]","[449, 959, 1460, 1951, 2530, 2953, 3456, 3993, 4464, 4982]","[123, 641, 1151, 1649, 2151, 2590, 3138, 3657, 4119, 4632]","[499, 1009, 1510, 2001, 2580, 3003, 3506, 4043, 4514, 5032]","[300, 807, 1298, 1796, 2303, 2793, 3306, 3824, 4306, 4793]"
27,"[202, 627, 1047, 1443, 1836, 2242, 2646, 3053, 3446, 3854, 4255, 4634]","[241, 666, 1075, 1489, 1864, 2292, 2700, 3085, 3493, 3877, 4292, 4676]","[309, 744, 1128, 1550, 1954, 2369, 2763, 3139, 3568, 3952, 4344, 4739]","[396, 825, 1234, 1628, 2031, 2429, 2848, 3250, 3629, 4041, 4440, 4843]","[178, 599, 1029, 1423, 1828, 2220, 2638, 3014, 3437, 3846, 4224, 4606]","[446, 858, 1279, 1694, 2047, 2500, 2910, 3273, 3675, 4085, 4510, 4877]","[128, 549, 979, 1373, 1778, 2170, 2588, 2964, 3387, 3796, 4174, 4556]","[496, 908, 1329, 1744, 2097, 2550, 2960, 3323, 3725, 4135, 4560, 4927]","[262, 688, 1101, 1508, 1907, 2314, 2716, 3114, 3518, 3915, 4317, 4708]"
28,"[475, 970, 1457, 1952, 2438, 2952, 3451, 3949, 4455, 4837]","[520, 1016, 1503, 1993, 2482, 2989, 3497, 3994, 4502, 4919]","[575, 1074, 1569, 2075, 2542, 3027, 3545, 4025, 4546, 4941]","[676, 1169, 1658, 2144, 2635, 3146, 3649, 4151, 4655, nan]","[466, 876, 1372, 1870, 2364, 2881, 3391, 3940, 4396, 4826]","[702, 1202, 1697, 2200, 2667, 3185, 3682, 4178, 4739, nan]","[416, 826, 1322, 1820, 2314, 2831, 3341, 3890, 4346, 4776]","[752.0, 1252.0, 1747.0, 2250.0, 2717.0, 3235.0, 3732.0, 4228.0, 4789.0, nan]","[536, 1031, 1520, 2007, 2498, 3004, 3513, 4010, 4516, 4936]"
29,"[422, 855, 1277, 1678, 2100, 2524, 2926, 3314, 3720, 4132, 4517]","[479, 899, 1324, 1735, 2154, 2577, 2955, 3372, 3777, 4169, 4560]","[504, 930, 1352, 1760, 2179, 2605, 2998, 3424, 3804, 4207, 4634]","[616, 1044, 1467, 1876, 2294, 2715, 3111, 3509, 3925, 4330, 4723]","[372, 823, 1222, 1670, 2077, 2516, 2904, 3278, 3675, 4103, 4497]","[658, 1077, 1502, 1913, 2327, 2749, 3147, 3555, 3957, 4349, 4763]","[322, 773, 1172, 1620, 2027, 2466, 2854, 3228, 3625, 4053, 4447]","[708, 1127, 1552, 1963, 2377, 2799, 3197, 3605, 4007, 4399, 4813]","[494, 917, 1341, 1749, 2166, 2592, 2987, 3386, 3793, 4196, 4597]"
30,"[249, 626, 1017, 1399, 1796, 2170, 2557, 2959, 3374, 3778, 4172, 4583, 4893]","[299, 692, 1078, 1461, 1844, 2214, 2620, 3020, 3425, 3828, 4238, 4650, 4935]","[326, 717, 1107, 1492, 1871, 2257, 2647, 3046, 3452, 3857, 4267, 4677, nan]","[442, 829, 1217, 1606, 1980, 2370, 2757, 3160, 3565, 3968, 4377, 4788, nan]","[217, 612, 997, 1372, 1766, 2140, 2539, 2945, 3323, 3743, 4163, 4561, 4831]","[463, 876, 1251, 1627, 2010, 2394, 2785, 3198, 3589, 3999, 4413, 4831, nan]","[167, 562, 947, 1322, 1716, 2090, 2489, 2895, 3273, 3693, 4113, 4511, 4781]","[513.0, 926.0, 1301.0, 1677.0, 2060.0, 2444.0, 2835.0, 3248.0, 3639.0, 4049.0, 4463.0, 4881.0, nan]","[313, 706, 1094, 1480, 1860, 2246, 2634, 3034, 3440, 3844, 4254, 4666, 4939]"
31,"[404, 800, 1187, 1575, 1940, 2328, 2701, 3092, 3475, 3846, 4224, 4600]","[441, 839, 1226, 1612, 1985, 2364, 2744, 3136, 3519, 3886, 4259, 4636]","[466, 865, 1252, 1640, 2009, 2388, 2770, 3161, 3545, 3910, 4285, 4663]","[579, 976, 1363, 1756, 2124, 2501, 2881, 3272, 3653, 4027, 4401, 4775]","[383, 780, 1166, 1550, 1929, 2295, 2683, 3082, 3450, 3825, 4189, 4561]","[604, 1028, 1396, 1784, 2150, 2530, 2910, 3302, 3689, 4051, 4429, 4801]","[333, 730, 1116, 1500, 1879, 2245, 2633, 3032, 3400, 3775, 4139, 4511]","[654, 1078, 1446, 1834, 2200, 2580, 2960, 3352, 3739, 4101, 4479, 4851]","[454, 853, 1240, 1628, 1998, 2377, 2757, 3150, 3532, 3899, 4272, 4650]"
32,"[498, 1080, 1662, 2311, 2914, 3458, 3976, 4461, 4777]","[558, 1127, 1726, 2359, 2959, 3505, 4038, 4508, 4911]","[593, 1157, 1755, 2388, 2991, 3534, 4070, 4536, 4936]","[722, 1282, 1884, 2517, 3116, 3658, 4197, 4660, 4937]","[484, 1033, 1631, 2296, 2869, 3413, 3963, 4421, 4745]","[752, 1318, 1917, 2548, 3157, 3697, 4229, 4693, 4981]","[434, 983, 1581, 2246, 2819, 3363, 3913, 4371, 4695]","[802, 1368, 1967, 2598, 3207, 3747, 4279, 4743, 5031]","[579, 1141, 1741, 2372, 2978, 3518, 4054, 4522, 4915]"
33,"[528, 1098, 1768, 2375, 3021, 3620, 4236, 4795]","[563, 1215, 1803, 2433, 3070, 3677, 4275, 4843]","[615, 1245, 1846, 2461, 3101, 3705, 4317, 4878]","[758, 1387, 1987, 2595, 3249, 3836, 4453, 4924]","[486, 1081, 1749, 2362, 2933, 3600, 4222, 4718]","[796, 1421, 2034, 2642, 3283, 3875, 4495, 4978]","[436, 1031, 1699, 2312, 2883, 3550, 4172, 4668]","[846, 1471, 2084, 2692, 3333, 3925, 4545, 5028]","[600, 1233, 1835, 2451, 3089, 3690, 4306, 4868]"
34,"[315, 767, 1242, 1720, 2170, 2655, 3117, 3629, 4080, 4544, 4755]","[378, 827, 1303, 1761, 2221, 2696, 3175, 3654, 4130, 4612, 4829]","[404, 878, 1328, 1790, 2251, 2723, 3197, 3679, 4156, 4637, 4853]","[522, 981, 1449, 1903, 2359, 2847, 3316, 3789, 4271, 4755, 4880]","[297, 756, 1230, 1662, 2113, 2622, 3053, 3561, 4011, 4529, 4725]","[550, 1029, 1535, 1953, 2394, 2858, 3368, 3841, 4313, 4834, 4984]","[247, 706, 1180, 1612, 2063, 2572, 3003, 3511, 3961, 4479, 4675]","[600, 1079, 1585, 2003, 2444, 2908, 3418, 3891, 4363, 4884, 5034]","[391, 854, 1319, 1776, 2240, 2711, 3186, 3665, 4146, 4624, 4844]"
35,"[97, 611, 1108, 1597, 2094, 2588, 3085, 3566, 4056, 4544]","[159, 666, 1171, 1659, 2154, 2649, 3137, 3617, 4108, 4605]","[196, 724, 1197, 1692, 2209, 2676, 3166, 3644, 4141, 4649]","[304, 809, 1315, 1800, 2298, 2792, 3279, 3762, 4254, 4747]","[84, 562, 1096, 1575, 2081, 2574, 3058, 3543, 4027, 4532]","[330, 833, 1346, 1823, 2323, 2816, 3312, 3795, 4274, 4777]","[34, 512, 1046, 1525, 2031, 2524, 3008, 3493, 3977, 4482]","[380, 883, 1396, 1873, 2373, 2866, 3362, 3845, 4324, 4827]","[178, 683, 1188, 1676, 2172, 2667, 3154, 3635, 4125, 4623]"
36,"[172, 563, 967, 1361, 1771, 2173, 2572, 2971, 3378, 3795, 4227, 4633]","[214, 592, 996, 1398, 1799, 2223, 2629, 3017, 3421, 3844, 4268, 4668]","[250, 643, 1038, 1446, 1852, 2259, 2654, 3051, 3459, 3884, 4300, 4720]","[373, 744, 1134, 1564, 1965, 2356, 2771, 3155, 3563, 3989, 4420, 4833]","[157, 532, 940, 1321, 1763, 2162, 2507, 2961, 3365, 3761, 4188, 4626]","[398, 786, 1201, 1585, 2002, 2374, 2782, 3205, 3575, 4031, 4438, 4898]","[107, 482, 890, 1271, 1713, 2112, 2457, 2911, 3315, 3711, 4138, 4576]","[448, 836, 1251, 1635, 2052, 2424, 2832, 3255, 3625, 4081, 4488, 4948]","[239, 630, 1026, 1433, 1841, 2246, 2641, 3038, 3448, 3873, 4289, 4709]"
37,"[228, 637, 1061, 1478, 1864, 2242, 2628, 3019, 3385, 3752, 4121, 4461, 4815]","[253, 666, 1096, 1525, 1892, 2279, 2669, 3064, 3414, 3799, 4162, 4509, 4844]","[299, 710, 1130, 1556, 1937, 2310, 2698, 3091, 3462, 3829, 4190, 4538, 4882]","[410, 817, 1246, 1660, 2038, 2418, 2805, 3196, 3569, 3937, 4296, 4644, 4890]","[218, 614, 1054, 1459, 1831, 2232, 2581, 3007, 3357, 3743, 4099, 4431, 4798]","[449, 848, 1275, 1692, 2074, 2449, 2840, 3249, 3601, 3987, 4329, 4676, 4986]","[168, 564, 1004, 1409, 1781, 2182, 2531, 2957, 3307, 3693, 4049, 4381, 4748]","[499, 898, 1325, 1742, 2124, 2499, 2890, 3299, 3651, 4037, 4379, 4726, 5036]","[288, 702, 1128, 1545, 1924, 2300, 2687, 3081, 3451, 3819, 4180, 4527, 4872]"
38,"[63, 424, 761, 1082, 1381, 1694, 1996, 2336, 2654, 2983, 3316, 3657, 4001, 4313, 4644]","[144, 481, 816, 1109, 1440, 1763, 2079, 2391, 2711, 3035, 3346, 3717, 4054, 4378, 4708]","[170, 506, 839, 1161, 1480, 1791, 2102, 2414, 2731, 3060, 3399, 3742, 4077, 4404, 4729]","[279, 594, 926, 1246, 1566, 1879, 2189, 2499, 2815, 3156, 3493, 3842, 4168, 4494, 4837]","[-4, 409, 751, 1045, 1372, 1686, 1968, 2284, 2572, 2971, 3305, 3649, 3957, 4302, 4634]","[298, 625, 964, 1284, 1605, 1918, 2227, 2536, 2857, 3178, 3539, 3874, 4193, 4530, 4852]","[-54, 359, 701, 995, 1322, 1636, 1918, 2234, 2522, 2921, 3255, 3599, 3907, 4252, 4584]","[348, 675, 1014, 1334, 1655, 1968, 2277, 2586, 2907, 3228, 3589, 3924, 4243, 4580, 4902]","[160, 496, 828, 1152, 1468, 1781, 2091, 2403, 2722, 3049, 3390, 3731, 4067, 4395, 4718]"
39,"[298, 762, 1267, 1791, 2337, 2873, 3412, 3967, 4499, 4826]","[340, 804, 1315, 1833, 2387, 2921, 3462, 4010, 4541, 4885]","[370, 833, 1345, 1864, 2413, 2950, 3496, 4040, 4568, 4923]","[492, 957, 1463, 1988, 2533, 3074, 3615, 4166, 4683, 4936]","[252, 725, 1256, 1724, 2321, 2798, 3389, 3871, 4490, 4813]","[519, 990, 1496, 2014, 2632, 3106, 3714, 4194, 4717, 4982]","[202, 675, 1206, 1674, 2271, 2748, 3339, 3821, 4440, 4763]","[569, 1040, 1546, 2064, 2682, 3156, 3764, 4244, 4767, 5032]","[358, 821, 1330, 1852, 2401, 2938, 3480, 4027, 4557, 4921]"
40,"[95, 539, 960, 1385, 1805, 2211, 2642, 3087, 3503, 3893, 4293, 4675]","[146, 587, 1015, 1433, 1852, 2258, 2690, 3133, 3549, 3947, 4348, 4732]","[174, 614, 1048, 1459, 1891, 2298, 2718, 3171, 3576, 3973, 4385, 4762]","[293, 724, 1150, 1575, 1992, 2397, 2842, 3274, 3694, 4082, 4485, 4884]","[49, 515, 940, 1364, 1768, 2185, 2614, 3064, 3497, 3885, 4253, 4658]","[321, 766, 1203, 1608, 2022, 2436, 2886, 3322, 3736, 4121, 4546, 4917]","[-1, 465, 890, 1314, 1718, 2135, 2564, 3014, 3447, 3835, 4203, 4608]","[371, 816, 1253, 1658, 2072, 2486, 2936, 3372, 3786, 4171, 4596, 4967]","[161, 601, 1027, 1448, 1867, 2272, 2705, 3147, 3564, 3960, 4361, 4748]"
41,"[300, 748, 1181, 1596, 2028, 2473, 2930, 3397, 3866, 4333, 4796]","[328, 785, 1210, 1642, 2054, 2517, 2977, 3439, 3907, 4351, 4832]","[390, 833, 1259, 1683, 2115, 2563, 3019, 3493, 3953, 4430, 4882]","[478, 922, 1352, 1771, 2211, 2654, 3104, 3570, 4041, 4516, 4939]","[292, 705, 1164, 1586, 2017, 2461, 2904, 3372, 3835, 4317, 4719]","[510, 949, 1381, 1836, 2227, 2687, 3139, 3611, 4069, 4534, 4985]","[242, 655, 1114, 1536, 1967, 2411, 2854, 3322, 3785, 4267, 4669]","[560, 999, 1431, 1886, 2277, 2737, 3189, 3661, 4119, 4584, 5035]","[362, 803, 1234, 1657, 2088, 2533, 2992, 3457, 3925, 4394, 4853]"
42,"[482, 922, 1381, 1798, 2232, 2654, 3089, 3504, 3925, 4374, 4882]","[535, 973, 1430, 1857, 2271, 2709, 3133, 3551, 3979, 4426, 4917]","[560, 1000, 1451, 1879, 2302, 2731, 3156, 3572, 3998, 4450, nan]","[655, 1100, 1541, 1970, 2398, 2822, 3257, 3667, 4097, 4550, nan]","[424, 890, 1355, 1763, 2192, 2643, 3067, 3479, 3847, 4350, 4831]","[688, 1128, 1587, 1995, 2468, 2854, 3285, 3687, 4195, 4581, nan]","[374, 840, 1305, 1713, 2142, 2593, 3017, 3429, 3797, 4300, 4781]","[738.0, 1178.0, 1637.0, 2045.0, 2518.0, 2904.0, 3335.0, 3737.0, 4245.0, 4631.0, nan]","[548, 991, 1442, 1867, 2292, 2719, 3147, 3564, 3989, 4442, 4942]"
43,"[151, 498, 847, 1204, 1565, 1915, 2274, 2625, 2982, 3336, 3694, 4063, 4405, 4763]","[206, 560, 910, 1263, 1621, 1978, 2336, 2690, 3044, 3398, 3752, 4108, 4464, 4826]","[240, 591, 945, 1296, 1655, 2017, 2367, 2724, 3077, 3430, 3784, 4142, 4496, 4858]","[344, 691, 1044, 1401, 1749, 2111, 2454, 2816, 3174, 3522, 3879, 4231, 4591, 4877]","[130, 487, 788, 1190, 1518, 1903, 2247, 2603, 2901, 3324, 3674, 4033, 4388, 4752]","[385, 728, 1077, 1432, 1781, 2130, 2500, 2866, 3206, 3574, 3927, 4276, 4624, 4983]","[80, 437, 738, 1140, 1468, 1853, 2197, 2553, 2851, 3274, 3624, 3983, 4338, 4702]","[435, 778, 1127, 1482, 1831, 2180, 2550, 2916, 3256, 3624, 3977, 4326, 4674, 5033]","[219, 575, 925, 1279, 1634, 1991, 2350, 2704, 3056, 3411, 3768, 4123, 4479, 4840]"
44,"[231, 586, 940, 1294, 1652, 2008, 2352, 2697, 3040, 3366, 3726, 4074, 4413, 4754]","[286, 635, 986, 1340, 1699, 2056, 2402, 2744, 3081, 3422, 3775, 4119, 4458, 4800]","[316, 665, 1016, 1370, 1727, 2086, 2430, 2771, 3109, 3451, 3801, 4149, 4487, 4829]","[420, 768, 1122, 1474, 1832, 2193, 2537, 2876, 3212, 3551, 3903, 4248, 4584, 4930]","[216, 552, 905, 1283, 1641, 1995, 2288, 2659, 2953, 3354, 3681, 4038, 4379, 4720]","[451, 807, 1162, 1508, 1860, 2221, 2560, 2909, 3241, 3583, 3941, 4284, 4635, 4982]","[166, 502, 855, 1233, 1591, 1945, 2238, 2609, 2903, 3304, 3631, 3988, 4329, 4670]","[501, 857, 1212, 1558, 1910, 2271, 2610, 2959, 3291, 3633, 3991, 4334, 4685, 5032]","[305, 653, 1006, 1358, 1717, 2075, 2419, 2760, 3100, 3441, 3791, 4137, 4476, 4818]"
45,"[156, 575, 1009, 1428, 1840, 2254, 2686, 3122, 3546, 3971, 4401, 4869]","[210, 630, 1056, 1470, 1885, 2296, 2725, 3164, 3591, 4018, 4457, 4916]","[238, 660, 1085, 1497, 1911, 2325, 2754, 3192, 3617, 4048, 4485, 4944]","[347, 773, 1192, 1604, 2023, 2437, 2867, 3296, 3726, 4152, 4596, nan]","[144, 562, 988, 1363, 1787, 2233, 2673, 3099, 3523, 3936, 4393, 4808]","[375, 804, 1231, 1643, 2052, 2465, 2896, 3326, 3764, 4193, 4629, nan]","[94, 512, 938, 1313, 1737, 2183, 2623, 3049, 3473, 3886, 4343, 4758]","[425.0, 854.0, 1281.0, 1693.0, 2102.0, 2515.0, 2946.0, 3376.0, 3814.0, 4243.0, 4679.0, nan]","[225, 645, 1072, 1484, 1898, 2312, 2741, 3178, 3603, 4032, 4470, 4931]"
46,"[387, 825, 1269, 1678, 2094, 2488, 2909, nan, 3741, 4129, 4499, 4822]","[459, 906, 1333, 1752, 2171, 2576, 2980, 3172, 3798, 4190, 4570, 4876]","[485, 934, 1368, 1780, 2191, 2596, 3002, 3355, 3821, 4211, 4594, 4888]","[591, 1035, 1467, 1889, 2299, 2720, 3107, 3413, 3928, 4303, 4705, 4906]","[354, 804, 1231, 1647, 2070, 2474, 2893, nan, 3708, 4104, 4491, 4778]","[636, 1080, 1506, 1926, 2349, 2762, 3168, 3443, 3943, 4316, 4721, 4986]","[304.0, 754.0, 1181.0, 1597.0, 2020.0, 2424.0, 2843.0, nan, 3658.0, 4054.0, 4441.0, 4728.0]","[686, 1130, 1556, 1976, 2399, 2812, 3218, 3493, 3993, 4366, 4771, 5036]","[473, 919, 1350, 1771, 2182, 2588, 2990, 3255, 3812, 4202, 4585, 4879]"
47,"[287, 782, 1280, 1766, 2279, 2711, 3271, 3751, 4230, 4695]","[340, 836, 1330, 1798, 2325, 2807, 3317, 3792, 4259, 4742]","[366, 861, 1354, 1849, 2354, 2850, 3344, 3826, 4304, 4769]","[484, 969, 1468, 1953, 2456, 2963, 3456, 3936, 4400, 4887]","[237, 714, 1244, 1734, 2198, 2694, 3176, 3738, 4206, 4684]","[510, 1009, 1492, 1984, 2488, 2986, 3494, 3966, 4447, 4983]","[187, 664, 1194, 1684, 2148, 2644, 3126, 3688, 4156, 4634]","[560, 1059, 1542, 2034, 2538, 3036, 3544, 4016, 4497, 5033]","[354, 845, 1342, 1833, 2339, 2837, 3333, 3813, 4285, 4758]"
48,"[440, 889, 1318, 1747, 2155, 2549, 2974, 3419, 3880, 4324, 4747]","[502, 948, 1383, 1808, 2217, 2613, 3032, 3478, 3935, 4345, 4809]","[530, 973, 1409, 1834, 2245, 2639, 3060, 3506, 3967, 4411, 4841]","[644, 1089, 1521, 1949, 2358, 2754, 3173, 3623, 4080, 4526, nan]","[412, 877, 1302, 1704, 2141, 2538, 2947, 3397, 3854, 4312, 4714]","[677, 1121, 1547, 1988, 2403, 2782, 3219, 3660, 4111, 4549, nan]","[362, 827, 1252, 1654, 2091, 2488, 2897, 3347, 3804, 4262, 4664]","[727.0, 1171.0, 1597.0, 2038.0, 2453.0, 2832.0, 3269.0, 3710.0, 4161.0, 4599.0, nan]","[514, 959, 1395, 1821, 2232, 2626, 3045, 3490, 3952, 4397, 4827]"
49,"[110, 518, 910, 1313, 1750, 2167, 2561, 3014, 3458, 3874, 4290, 4696]","[161, 563, 954, 1367, 1805, 2212, 2614, 3051, 3498, 3926, 4342, 4760]","[184, 590, 983, 1390, 1831, 2239, 2642, 3078, 3524, 3951, 4369, 4790]","[278, 682, 1095, 1500, 1937, 2348, 2745, 3179, 3615, 4054, 4474, 4883]","[101, 465, 872, 1291, 1731, 2146, 2547, 2946, 3448, 3854, 4268, 4687]","[328, 725, 1107, 1547, 1977, 2395, 2780, 3241, 3655, 4080, 4520, 4924]","[51, 415, 822, 1241, 1681, 2096, 2497, 2896, 3398, 3804, 4218, 4637]","[378, 775, 1157, 1597, 2027, 2445, 2830, 3291, 3705, 4130, 4570, 4974]","[175, 577, 971, 1379, 1819, 2226, 2630, 3065, 3511, 3939, 4358, 4775]"
50,"[159, 424, 698, 963, 1258, 1575, 1857, 2413, 2800, 3145, 3492, 3833, 4144, 4443, 4751]","[204, 473, 732, 1035, 1308, 1632, 1908, 2464, 2850, 3208, 3545, 3885, 4201, 4509, 4801]","[240, 506, 777, 1057, 1349, 1663, 1984, 2492, 2878, 3231, 3572, 3911, 4232, 4535, 4834]","[336, 595, 873, 1149, 1443, 1752, 2081, 2601, 2974, 3332, 3673, 4008, 4327, 4630, 4931]","[102, 366, 629, 899, 1188, 1545, 1836, 2397, 2767, 3128, 3474, 3816, 4132, 4377, 4673]","[366, 629, 899, 1179, 1471, 1793, 2118, 2621, 3005, 3357, 3697, 4042, 4357, 4660, 4984]","[52, 316, 579, 849, 1138, 1495, 1786, 2347, 2717, 3078, 3424, 3766, 4082, 4327, 4623]","[416, 679, 949, 1229, 1521, 1843, 2168, 2671, 3055, 3407, 3747, 4092, 4407, 4710, 5034]","[229, 494, 766, 1045, 1338, 1651, 1972, 2481, 2866, 3220, 3561, 3900, 4221, 4524, 4823]"
51,"[271, 853, 1391, 1918, 2475, 3027, 3592, 4103, 4619]","[290, 873, 1416, 1933, 2507, 3066, 3618, 4155, 4657]","[334, 925, 1459, 1985, 2536, 3096, 3652, 4181, 4686]","[450, 1043, 1580, 2102, 2655, 3212, 3769, 4299, 4804]","[211, 838, 1378, 1904, 2452, 3002, 3546, 4092, 4602]","[484, 1066, 1606, 2132, 2681, 3251, 3796, 4329, 4837]","[161, 788, 1328, 1854, 2402, 2952, 3496, 4042, 4552]","[534, 1116, 1656, 2182, 2731, 3301, 3846, 4379, 4887]","[320, 911, 1446, 1972, 2523, 3083, 3639, 4168, 4673]"
52,"[349, 799, 1280, 1746, 2192, 2617, 3044, 3507, 3959, 4409, 4862]","[407, 859, 1328, 1801, 2245, 2676, 3109, 3564, 4022, 4457, 4922]","[435, 886, 1360, 1827, 2274, 2699, 3140, 3590, 4046, 4492, nan]","[539, 993, 1484, 1933, 2387, 2807, 3247, 3695, 4160, 4604, nan]","[325, 779, 1249, 1717, 2162, 2592, 3033, 3480, 3936, 4385, 4837]","[579, 1034, 1507, 1968, 2418, 2853, 3306, 3734, 4195, 4649, nan]","[275, 729, 1199, 1667, 2112, 2542, 2983, 3430, 3886, 4335, 4787]","[629.0, 1084.0, 1557.0, 2018.0, 2468.0, 2903.0, 3356.0, 3784.0, 4245.0, 4699.0, nan]","[423, 872, 1346, 1815, 2260, 2688, 3126, 3578, 4035, 4483, 4935]"
53,"[252, 644, 1082, 1507, 1944, 2380, 2790, 3219, 3628, 4044, 4458, 4881]","[317, 724, 1144, 1580, 2013, 2444, 2866, 3284, 3695, 4104, 4519, 4888]","[351, 754, 1176, 1612, 2040, 2474, 2896, 3308, 3725, 4137, 4551, 4904]","[453, 857, 1283, 1712, 2153, 2583, 2998, 3419, 3834, 4242, 4656, 4929]","[217, 610, 1024, 1499, 1924, 2356, 2762, 3202, 3611, 4006, 4416, 4861]","[480, 890, 1314, 1749, 2191, 2648, 3026, 3452, 3852, 4279, 4694, 4986]","[167, 560, 974, 1449, 1874, 2306, 2712, 3152, 3561, 3956, 4366, 4811]","[530, 940, 1364, 1799, 2241, 2698, 3076, 3502, 3902, 4329, 4744, 5036]","[331, 738, 1161, 1595, 2030, 2459, 2881, 3298, 3710, 4122, 4536, 4891]"
54,"[192, 672, 1141, 1596, 2045, 2512, 2985, 3445, 3907, 4355, 4815]","[248, 728, 1200, 1629, 2073, 2571, 3042, 3484, 3957, 4414, 4845]","[273, 759, 1229, 1678, 2131, 2598, 3071, 3530, 3982, 4442, 4901]","[380, 868, 1335, 1781, 2237, 2705, 3179, 3641, 4091, 4552, nan]","[175, 662, 1130, 1582, 2034, 2502, 2977, 3437, 3885, 4281, 4807]","[421, 896, 1365, 1817, 2271, 2741, 3223, 3673, 4127, 4585, nan]","[125, 612, 1080, 1532, 1984, 2452, 2927, 3387, 3835, 4231, 4757]","[471.0, 946.0, 1415.0, 1867.0, 2321.0, 2791.0, 3273.0, 3723.0, 4177.0, 4635.0, nan]","[261, 748, 1217, 1667, 2120, 2587, 3061, 3519, 3971, 4430, 4889]"
55,"[111, 522, 911, 1303, 1694, 2095, 2508, 2902, 3301, 3697, 4089, 4474, 4854]","[133, 540, 943, 1340, 1712, 2111, 2529, 2920, 3336, 3725, 4115, 4518, 4901]","[178, 584, 984, 1367, 1756, 2159, 2572, 2968, 3363, 3764, 4154, 4547, 4929]","[275, 685, 1081, 1463, 1854, 2255, 2667, 3065, 3463, 3862, 4251, 4645, 4936]","[74, 503, 900, 1291, 1673, 2085, 2470, 2892, 3286, 3686, 4062, 4465, 4846]","[307, 705, 1110, 1496, 1883, 2281, 2696, 3094, 3490, 3885, 4276, 4675, 4986]","[24, 453, 850, 1241, 1623, 2035, 2420, 2842, 3236, 3636, 4012, 4415, 4796]","[357, 755, 1160, 1546, 1933, 2331, 2746, 3144, 3540, 3935, 4326, 4725, 5036]","[165, 572, 972, 1355, 1743, 2145, 2558, 2953, 3352, 3750, 4142, 4534, 4914]"
56,"[493, 925, 1378, 1820, 2252, 2694, 3133, 3575, 4004, 4429, 4870]","[517, 964, 1405, 1847, 2296, 2724, 3171, 3587, 4010, 4468, 4909]","[557, 1004, 1437, 1881, 2321, 2753, 3197, 3635, 4059, 4495, 4936]","[676, 1124, 1550, 1983, 2443, 2860, 3307, 3739, 4175, 4598, nan]","[430, 909, 1301, 1778, 2241, 2641, 3092, 3488, 3990, 4357, 4837]","[739, 1200, 1584, 2079, 2476, 2933, 3396, 3820, 4227, 4635, nan]","[380, 859, 1251, 1728, 2191, 2591, 3042, 3438, 3940, 4307, 4787]","[789.0, 1250.0, 1634.0, 2129.0, 2526.0, 2983.0, 3446.0, 3870.0, 4277.0, 4685.0, nan]","[545, 992, 1425, 1869, 2308, 2742, 3185, 3622, 4047, 4483, 4924]"
57,"[179, 654, 1157, 1701, 2185, 2676, 3143, 3593, 4130, 4724]","[244, 737, 1249, 1767, 2254, 2741, 3204, 3671, 4231, 4818]","[271, 762, 1259, 1795, 2280, 2770, 3230, 3688, 4242, 4827]","[410, 898, 1408, 1932, 2415, 2905, 3363, 3830, 4380, 4834]","[169, 634, 1098, 1629, 2155, 2648, 3131, 3533, 4111, 4694]","[439, 916, 1427, 1953, 2447, 2920, 3394, 3858, 4420, 4982]","[119, 584, 1048, 1579, 2105, 2598, 3081, 3483, 4061, 4644]","[489, 966, 1477, 2003, 2497, 2970, 3444, 3908, 4470, 5032]","[260, 754, 1257, 1788, 2272, 2759, 3222, 3686, 4240, 4821]"
58,"[332, 838, 1342, 1861, 2298, 2717, 3178, 3620, 4242, 4756]","[391, 894, 1409, 1910, 2348, 2779, 3227, 3666, 4313, 4835]","[417, 920, 1438, 1939, 2375, 2804, 3254, 3693, 4340, 4862]","[523, 1027, 1553, 2048, 2482, 2918, 3373, 3819, 4452, 4871]","[318, 752, 1328, 1822, 2252, 2681, 3108, 3607, 4225, 4743]","[579, 1072, 1594, 2097, 2538, 2958, 3402, 3852, 4516, 4982]","[268, 702, 1278, 1772, 2202, 2631, 3058, 3557, 4175, 4693]","[629, 1122, 1644, 2147, 2588, 3008, 3452, 3902, 4566, 5032]","[408, 910, 1428, 1928, 2366, 2794, 3244, 3684, 4330, 4853]"
59,"[466, 1010, 1543, 2039, 2538, 2997, 3501, 3978, 4519, 4832]","[531, 1066, 1597, 2107, 2589, 3059, 3549, 4043, 4570, 4919]","[558, 1093, 1622, 2131, 2614, 3084, 3573, 4068, 4596, 4935]","[680, 1214, 1742, 2255, 2739, 3200, 3700, 4188, 4719, 4937]","[453, 977, 1505, 2012, 2500, 2975, 3469, 3965, 4459, 4794]","[710, 1250, 1771, 2288, 2760, 3229, 3720, 4221, 4752, 4982]","[403, 927, 1455, 1962, 2450, 2925, 3419, 3915, 4409, 4744]","[760, 1300, 1821, 2338, 2810, 3279, 3770, 4271, 4802, 5032]","[546, 1082, 1611, 2120, 2602, 3073, 3561, 4056, 4586, 4926]"
60,"[240, 645, 1043, 1433, 1847, 2289, 2713, 3139, 3562, 3941, 4343, 4729]","[285, 677, 1078, 1486, 1899, 2306, 2751, 3183, 3593, 3975, 4378, 4768]","[324, 702, 1103, 1529, 1933, 2364, 2792, 3243, 3617, 4021, 4400, 4805]","[410, 789, 1203, 1617, 2033, 2463, 2875, 3307, 3725, 4119, 4510, 4904]","[237, 588, 1011, 1395, 1836, 2244, 2705, 3116, 3468, 3935, 4288, 4722]","[452, 842, 1257, 1655, 2070, 2491, 2884, 3350, 3735, 4176, 4554, 4940]","[187, 538, 961, 1345, 1786, 2194, 2655, 3066, 3418, 3885, 4238, 4672]","[502, 892, 1307, 1705, 2120, 2541, 2934, 3400, 3785, 4226, 4604, 4990]","[298, 692, 1094, 1500, 1918, 2340, 2765, 3197, 3609, 4001, 4391, 4786]"
61,"[111, 545, 999, 1426, 1883, 2316, 2735, 3168, 3611, 4046, 4464, 4868]","[212, 649, 1107, 1534, 1976, 2363, 2851, 3265, 3675, 4123, 4541, 4922]","[253, 686, 1142, 1564, 2016, 2455, 2880, 3308, 3749, 4171, 4589, 4933]","[362, 789, 1252, 1670, 2120, 2558, 2992, 3422, 3854, 4279, 4706, 4944]","[85, 524, 976, 1402, 1874, 2297, 2719, 3153, 3585, 4020, 4456, 4858]","[396, 875, 1265, 1701, 2150, 2594, 3017, 3435, 3893, 4321, 4725, 4985]","[35, 474, 926, 1352, 1824, 2247, 2669, 3103, 3535, 3970, 4406, 4808]","[446, 925, 1315, 1751, 2200, 2644, 3067, 3485, 3943, 4371, 4775, 5035]","[233, 671, 1124, 1550, 1996, 2440, 2867, 3293, 3733, 4157, 4576, 4926]"
62,"[409, 827, 1220, 1639, 2077, 2497, 2911, 3323, 3724, 4141, 4554]","[453, 857, 1263, 1678, 2112, 2532, 2946, 3360, 3768, 4184, 4598]","[487, 895, 1304, 1714, 2147, 2568, 2986, 3395, 3808, 4223, 4636]","[590, 996, 1402, 1819, 2254, 2671, 3082, 3501, 3908, 4326, 4735]","[396, 779, 1206, 1604, 2040, 2457, 2882, 3285, 3707, 4130, 4543]","[621, 1025, 1429, 1852, 2279, 2699, 3114, 3527, 3936, 4349, 4764]","[346, 729, 1156, 1554, 1990, 2407, 2832, 3235, 3657, 4080, 4493]","[671, 1075, 1479, 1902, 2329, 2749, 3164, 3577, 3986, 4399, 4814]","[468, 873, 1278, 1694, 2128, 2548, 2961, 3375, 3784, 4200, 4613]"
63,"[197, 669, 1115, 1578, 2012, 2473, 2913, 3348, 3768, 4236, 4689]","[256, 722, 1171, 1615, 2069, 2529, 2966, 3390, 3821, 4276, 4734]","[285, 752, 1200, 1643, 2123, 2573, 2995, 3419, 3850, 4320, 4763]","[399, 859, 1309, 1755, 2209, 2663, 3104, 3527, 3960, 4414, 4874]","[186, 653, 1106, 1552, 1977, 2450, 2887, 3321, 3738, 4206, 4622]","[418, 891, 1343, 1778, 2230, 2692, 3133, 3552, 3980, 4441, 4896]","[136, 603, 1056, 1502, 1927, 2400, 2837, 3271, 3688, 4156, 4572]","[468, 941, 1393, 1828, 2280, 2742, 3183, 3602, 4030, 4491, 4946]","[270, 737, 1185, 1628, 2082, 2543, 2981, 3403, 3835, 4290, 4748]"
64,"[199, 663, 1118, 1623, 2088, 2556, 3036, 3486, 3991, 4451, 4773]","[260, 720, 1192, 1668, 2151, 2633, 3092, 3543, 4038, 4505, 4904]","[290, 749, 1222, 1697, 2183, 2670, 3134, 3596, 4068, 4536, 4944]","[423, 852, 1321, 1799, 2288, 2769, 3237, 3716, 4171, 4651, nan]","[190, 613, 1091, 1574, 2038, 2526, 2977, 3454, 3931, 4441, 4747]","[452, 866, 1380, 1855, 2333, 2809, 3290, 3739, 4185, 4704, nan]","[140, 563, 1041, 1524, 1988, 2476, 2927, 3404, 3881, 4391, 4697]","[502.0, 916.0, 1430.0, 1905.0, 2383.0, 2859.0, 3340.0, 3789.0, 4235.0, 4754.0, nan]","[289, 736, 1208, 1683, 2169, 2650, 3122, 3577, 4054, 4521, 4908]"
65,"[348, 907, 1363, 1796, 2240, 2794, 3395, 3995, 4373, 4538, 4767]","[432, 989, 1453, 1883, 2324, 2880, 3489, 4072, 4377, 4612, 4861]","[458, 1015, 1488, 1911, 2351, 2908, 3514, 4104, 4395, 4638, 4879]","[591, 1127, 1614, 2030, 2466, 3035, 3646, 4230, 4442, 4767, 4918]","[336, 858, 1352, 1786, 2201, 2751, 3358, 3949, 4259, 4501, 4723]","[623, 1139, 1646, 2066, 2501, 3073, 3674, 4259, 4454, 4800, 4985]","[286, 808, 1302, 1736, 2151, 2701, 3308, 3899, 4209, 4451, 4673]","[673, 1189, 1696, 2116, 2551, 3123, 3724, 4309, 4504, 4850, 5035]","[446, 1003, 1473, 1899, 2339, 2894, 3500, 4088, 4391, 4626, 4874]"
66,"[526, 1107, 1654, 2197, 2751, 3303, 3858, 4423, 4763]","[587, 1164, 1713, 2255, 2808, 3365, 3921, 4481, 4912]","[621, 1198, 1745, 2289, 2841, 3400, 3954, 4515, 4931]","[742, 1317, 1871, 2412, 2963, 3519, 4079, 4638, 4933]","[498, 1079, 1642, 2170, 2711, 3290, 3834, 4397, 4744]","[777, 1355, 1901, 2444, 2996, 3552, 4109, 4670, 4980]","[448, 1029, 1592, 2120, 2661, 3240, 3784, 4347, 4694]","[827, 1405, 1951, 2494, 3046, 3602, 4159, 4720, 5030]","[605, 1180, 1728, 2271, 2824, 3383, 3937, 4497, 4927]"
67,"[228, 792, 1120, 1464, 1813, 2182, 2542, 2919, 3349, 3783, 4226, 4661]","[335, 837, 1177, 1513, 1869, 2231, 2597, 2973, 3396, 3832, 4280, 4716]","[372, 883, 1248, 1557, 1923, 2277, 2637, 3009, 3443, 3878, 4336, 4767]","[375, 964, 1304, 1639, 1994, 2355, 2727, 3098, 3530, 3961, 4411, 4842]","[209, 778, 1112, 1423, 1784, 2146, 2527, 2904, 3289, 3754, 4218, 4652]","[385, 1006, 1335, 1675, 2025, 2391, 2757, 3143, 3558, 3988, 4444, 4879]","[159, 728, 1062, 1373, 1734, 2096, 2477, 2854, 3239, 3704, 4168, 4602]","[435, 1056, 1385, 1725, 2075, 2441, 2807, 3193, 3608, 4038, 4494, 4929]","[348, 854, 1190, 1528, 1884, 2245, 2610, 2988, 3410, 3847, 4294, 4729]"
68,"[578, 859, 1400, 1805, 2216, 2660, 3104, 3553, 4018, 4480, 4879]","[628, 913, 1414, 1855, 2268, 2700, 3143, 3606, 4067, 4516, 4914]","[651, 939, 1460, 1878, 2296, 2724, 3169, 3628, 4091, 4557, nan]","[762, 1043, 1578, 1989, 2403, 2836, 3278, 3739, 4202, 4665, nan]","[558, 798, 1367, 1775, 2198, 2629, 3074, 3542, 3994, 4469, 4855]","[798, 1073, 1606, 2030, 2427, 2868, 3307, 3762, 4228, 4699, nan]","[508, 748, 1317, 1725, 2148, 2579, 3024, 3492, 3944, 4419, 4805]","[848.0, 1123.0, 1656.0, 2080.0, 2477.0, 2918.0, 3357.0, 3812.0, 4278.0, 4749.0, nan]","[639, 923, 1449, 1867, 2283, 2711, 3156, 3616, 4079, 4543, 4921]"
69,"[536, 1051, 1548, 2064, 2565, 3069, 3574, 4089, 4601]","[583, 1099, 1598, 2106, 2619, 3125, 3626, 4140, 4652]","[609, 1122, 1622, 2130, 2640, 3148, 3651, 4165, 4676]","[724, 1229, 1738, 2252, 2748, 3263, 3766, 4275, 4788]","[515, 1032, 1532, 2038, 2553, 3056, 3559, 4072, 4585]","[746, 1303, 1805, 2292, 2783, 3317, 3810, 4324, 4831]","[465, 982, 1482, 1988, 2503, 3006, 3509, 4022, 4535]","[796, 1353, 1855, 2342, 2833, 3367, 3860, 4374, 4881]","[596, 1112, 1611, 2118, 2630, 3136, 3639, 4153, 4665]"
70,"[287, 754, 1219, 1679, 2145, 2594, 3054, 3491, 3945, 4393, 4843]","[377, 833, 1293, 1739, 2210, 2654, 3100, 3554, 3970, 4450, 4902]","[399, 858, 1318, 1785, 2229, 2681, 3136, 3581, 4028, 4482, 4927]","[511, 964, 1414, 1893, 2328, 2785, 3246, 3695, 4137, 4577, 4939]","[278, 732, 1191, 1618, 2119, 2585, 2969, 3422, 3909, 4335, 4778]","[553, 1058, 1470, 1932, 2370, 2818, 3336, 3718, 4156, 4667, 4984]","[228, 682, 1141, 1568, 2069, 2535, 2919, 3372, 3859, 4285, 4728]","[603, 1108, 1520, 1982, 2420, 2868, 3386, 3768, 4206, 4717, 5034]","[391, 847, 1307, 1771, 2221, 2672, 3126, 3572, 4018, 4472, 4919]"
71,"[427, 849, 1262, 1704, 2172, 2644, 3096, 3577, 4049, 4518, 4827]","[477, 875, 1285, 1751, 2207, 2663, 3124, 3606, 4092, 4540, 4914]","[504, 915, 1332, 1785, 2250, 2712, 3175, 3645, 4126, 4581, 4921]","[613, 1026, 1447, 1889, 2349, 2817, 3279, 3743, 4233, 4682, 4926]","[371, 830, 1199, 1677, 2154, 2582, 3078, 3548, 4028, 4412, 4786]","[640, 1052, 1480, 1979, 2381, 2845, 3304, 3802, 4260, 4714, 4984]","[321, 780, 1149, 1627, 2104, 2532, 3028, 3498, 3978, 4362, 4736]","[690, 1102, 1530, 2029, 2431, 2895, 3354, 3852, 4310, 4764, 5034]","[493, 903, 1321, 1768, 2235, 2702, 3160, 3635, 4109, 4565, 4918]"
72,"[130, 561, 1008, 1354, 1708, 2312, 2865, 3389, 3903, 4411, 4842]","[166, 611, 1065, 1443, 1745, 2358, 2908, 3431, 3934, 4444, 4868]","[202, 649, 1099, 1452, 1776, 2389, 2942, 3472, 3987, 4489, 4931]","[310, 757, 1212, 1532, 1884, 2495, 3054, 3593, 4099, 4604, nan]","[63, 486, 999, 1307, 1643, 2290, 2847, 3339, 3865, 4380, 4744]","[343, 795, 1234, 1643, 1925, 2532, 3098, 3619, 4135, 4674, nan]","[13, 436, 949, 1257, 1593, 2240, 2797, 3289, 3815, 4330, 4694]","[393.0, 845.0, 1284.0, 1693.0, 1975.0, 2582.0, 3148.0, 3669.0, 4185.0, 4724.0, nan]","[186, 631, 1081, 1445, 1759, 2375, 2928, 3457, 3972, 4473, 4884]"
73,"[532, 1056, 1580, 2095, 2573, 3110, 3669, 4218, 4718]","[607, 1126, 1651, 2144, 2638, 3143, 3731, 4271, 4778]","[638, 1157, 1677, 2181, 2671, 3204, 3762, 4300, 4805]","[758, 1277, 1792, 2307, 2788, 3329, 3880, 4423, 4928]","[508, 1010, 1569, 2011, 2564, 3024, 3649, 4170, 4678]","[790, 1310, 1823, 2333, 2823, 3371, 3922, 4458, 4982]","[458, 960, 1519, 1961, 2514, 2974, 3599, 4120, 4628]","[840, 1360, 1873, 2383, 2873, 3421, 3972, 4508, 5032]","[626, 1144, 1664, 2169, 2660, 3192, 3749, 4286, 4794]"
74,"[439, 849, 1270, 1679, 2077, 2490, 2883, 3284, 3681, 4075, 4447, 4815]","[508, 920, 1330, 1743, 2148, 2552, 2946, 3336, 3735, 4134, 4518, 4888]","[536, 949, 1360, 1772, 2178, 2585, 2974, 3366, 3766, 4163, 4546, 4918]","[641, 1058, 1466, 1879, 2287, 2687, 3086, 3481, 3874, 4271, 4650, 4943]","[411, 832, 1239, 1646, 2057, 2466, 2852, 3274, 3647, 4046, 4435, 4795]","[693, 1111, 1503, 1914, 2320, 2743, 3124, 3509, 3904, 4301, 4685, 4986]","[361, 782, 1189, 1596, 2007, 2416, 2802, 3224, 3597, 3996, 4385, 4745]","[743, 1161, 1553, 1964, 2370, 2793, 3174, 3559, 3954, 4351, 4735, 5036]","[521, 933, 1344, 1757, 2162, 2565, 2960, 3353, 3752, 4147, 4531, 4902]"
75,"[396, 723, 1012, 1384, 1702, 2041, 2367, 2686, 3008, 3328, 3654, 3986, 4320, 4654]","[446, 774, 1015, 1428, 1757, 2087, 2410, 2730, 3053, 3373, 3698, 4004, 4364, 4699]","[478, 799, 1125, 1455, 1790, 2120, 2443, 2762, 3083, 3404, 3731, 4062, 4394, 4727]","[586, 899, 1236, 1564, 1898, 2222, 2542, 2859, 3180, 3511, 3827, 4160, 4503, 4834]","[380, 636, 1003, 1356, 1679, 1980, 2282, 2602, 2999, 3318, 3637, 3962, 4292, 4617]","[614, 910, 1264, 1580, 1913, 2255, 2580, 2898, 3217, 3536, 3875, 4201, 4540, 4869]","[330, 586, 953, 1306, 1629, 1930, 2232, 2552, 2949, 3268, 3587, 3912, 4242, 4567]","[664, 960, 1314, 1630, 1963, 2305, 2630, 2948, 3267, 3586, 3925, 4251, 4590, 4919]","[465, 787, 1113, 1444, 1776, 2106, 2429, 2749, 3069, 3390, 3717, 4048, 4380, 4713]"
76,"[418, 972, 1487, 1971, 2665, 3276, 3813, 4326, 4821]","[459, 1010, 1540, 2092, 2705, 3314, 3867, 4367, 4860]","[491, 1046, 1581, 2119, 2739, 3353, 3891, 4390, 4896]","[615, 1164, 1688, 2250, 2859, 3474, 4019, 4527, nan]","[388, 959, 1463, 1958, 2640, 3245, 3802, 4312, 4722]","[671, 1270, 1701, 2275, 2886, 3521, 4071, 4570, nan]","[338, 909, 1413, 1908, 2590, 3195, 3752, 4262, 4672]","[721.0, 1320.0, 1751.0, 2325.0, 2936.0, 3571.0, 4121.0, 4620.0, nan]","[472, 1026, 1559, 2110, 2722, 3333, 3883, 4382, 4877]"
77,"[202, 551, 890, 1242, 1588, 1950, 2291, 2634, 3005, 3362, 3712, 4056, 4400, 4747]","[234, 582, 930, 1280, 1630, 1984, 2333, 2677, 3036, 3391, 3747, 4094, 4436, 4786]","[259, 607, 954, 1303, 1656, 2011, 2359, 2703, 3058, 3417, 3773, 4118, 4461, 4812]","[362, 711, 1054, 1408, 1758, 2111, 2465, 2804, 3163, 3523, 3876, 4220, 4564, 4914]","[183, 515, 873, 1223, 1575, 1930, 2195, 2625, 2979, 3262, 3689, 4039, 4369, 4720]","[384, 756, 1110, 1449, 1796, 2153, 2484, 2828, 3186, 3556, 3901, 4244, 4655, 4983]","[133, 465, 823, 1173, 1525, 1880, 2145, 2575, 2929, 3212, 3639, 3989, 4319, 4670]","[434, 806, 1160, 1499, 1846, 2203, 2534, 2878, 3236, 3606, 3951, 4294, 4705, 5033]","[246, 594, 941, 1292, 1641, 1996, 2345, 2689, 3046, 3402, 3758, 4105, 4447, 4797]"
78,"[207, 616, 1045, 1494, 1951, 2423, 2885, 3327, 3782, 4212, 4637]","[243, 661, 1063, 1532, 1989, 2458, 2920, 3374, 3807, 4246, 4662]","[279, 690, 1107, 1554, 2018, 2488, 2950, 3402, 3843, 4277, 4706]","[399, 810, 1226, 1666, 2131, 2608, 3065, 3517, 3954, 4383, 4814]","[198, 593, 965, 1450, 1926, 2388, 2846, 3312, 3752, 4188, 4620]","[441, 821, 1253, 1695, 2155, 2630, 3090, 3562, 3985, 4434, 4857]","[148, 543, 915, 1400, 1876, 2338, 2796, 3262, 3702, 4138, 4570]","[491, 871, 1303, 1745, 2205, 2680, 3140, 3612, 4035, 4484, 4907]","[267, 680, 1097, 1544, 2008, 2478, 2939, 3392, 3834, 4266, 4694]"
79,"[107, 504, 866, 1202, 1566, 1965, 2400, 2819, 3226, 3601, 3976, 4357, 4740]","[173, 549, 918, 1266, 1628, 2020, 2455, 2865, 3274, 3653, 4031, 4409, 4794]","[203, 580, 943, 1290, 1656, 2048, 2485, 2895, 3302, 3683, 4060, 4440, 4821]","[313, 683, 1059, 1404, 1767, 2163, 2588, 3009, 3406, 3789, 4175, 4543, 4849]","[59, 496, 811, 1183, 1527, 1956, 2373, 2769, 3204, 3568, 3947, 4332, 4703]","[350, 701, 1090, 1450, 1793, 2196, 2632, 3019, 3437, 3845, 4199, 4583, 4864]","[9, 446, 761, 1133, 1477, 1906, 2323, 2719, 3154, 3518, 3897, 4282, 4653]","[400, 751, 1140, 1500, 1843, 2246, 2682, 3069, 3487, 3895, 4249, 4633, 4914]","[186, 565, 933, 1281, 1642, 2034, 2469, 2881, 3288, 3669, 4046, 4425, 4806]"
80,"[237, 750, 1366, 1985, 2557, 3085, 3636, 4183, 4721]","[298, 806, 1434, 2036, 2574, 3139, 3693, 4227, 4789]","[322, 820, 1455, 2064, 2631, 3161, 3713, 4258, 4816]","[455, 964, 1610, 2194, 2766, 3308, 3859, 4396, 4820]","[196, 720, 1280, 1944, 2544, 2959, 3621, 4162, 4710]","[501, 999, 1635, 2235, 2800, 3339, 3889, 4434, 4981]","[146, 670, 1230, 1894, 2494, 2909, 3571, 4112, 4660]","[551, 1049, 1685, 2285, 2850, 3389, 3939, 4484, 5031]","[309, 817, 1448, 2051, 2622, 3153, 3704, 4251, 4802]"
81,"[336, 736, 1203, 1679, 2139, 2579, 3068, 3539, 3988, 4443, 4892]","[396, 779, 1252, 1739, 2213, 2641, 3114, 3602, 4050, 4513, 4901]","[424, 849, 1304, 1765, 2225, 2664, 3160, 3640, 4073, 4539, nan]","[526, 949, 1404, 1879, 2334, 2786, 3256, 3741, 4186, 4642, nan]","[326, 727, 1192, 1667, 2106, 2553, 3051, 3529, 3936, 4383, 4881]","[566, 981, 1446, 1910, 2369, 2810, 3299, 3771, 4219, 4688, nan]","[276, 677, 1142, 1617, 2056, 2503, 3001, 3479, 3886, 4333, 4831]","[616.0, 1031.0, 1496.0, 1960.0, 2419.0, 2860.0, 3349.0, 3821.0, 4269.0, 4738.0, nan]","[406, 832, 1287, 1761, 2221, 2661, 3142, 3622, 4070, 4524, 4908]"
82,"[341, 799, 1249, 1706, 2146, 2594, 3030, 3473, 3911, 4361, 4801]","[369, 828, 1284, 1734, 2181, 2625, 3065, 3512, 3943, 4390, 4836]","[400, 854, 1314, 1764, 2210, 2655, 3098, 3541, 3980, 4420, 4864]","[514, 969, 1435, 1879, 2326, 2772, 3220, 3657, 4095, 4538, nan]","[317, 771, 1226, 1686, 2133, 2575, 3012, 3457, 3867, 4334, 4780]","[538, 1009, 1456, 1909, 2354, 2797, 3242, 3684, 4127, 4573, nan]","[267, 721, 1176, 1636, 2083, 2525, 2962, 3407, 3817, 4284, 4730]","[588.0, 1059.0, 1506.0, 1959.0, 2404.0, 2847.0, 3292.0, 3734.0, 4177.0, 4623.0, nan]","[387, 842, 1300, 1752, 2199, 2643, 3086, 3526, 3966, 4406, 4851]"
83,"[459, 954, 1474, 2009, 2538, 3063, 3595, 4106, 4636]","[528, 1024, 1541, 2075, 2612, 3133, 3657, 4179, 4708]","[560, 1052, 1572, 2107, 2640, 3162, 3684, 4206, 4738]","[679, 1169, 1694, 2226, 2754, 3278, 3804, 4331, 4855]","[447, 942, 1444, 1990, 2467, 3053, 3500, 4078, 4626]","[708, 1199, 1726, 2253, 2791, 3323, 3838, 4355, 4895]","[397, 892, 1394, 1940, 2417, 3003, 3450, 4028, 4576]","[758, 1249, 1776, 2303, 2841, 3373, 3888, 4405, 4945]","[542, 1040, 1558, 2090, 2626, 3148, 3670, 4195, 4725]"
84,"[249, 519, 797, 1074, 1344, 1628, 1901, 2172, 2448, 2724, 3012, 3278, 3553, 3843, 4115, 4376, 4650]","[298, 581, 862, 1119, 1398, 1684, 1959, 2236, 2511, 2763, 3051, 3342, 3614, 3879, 4168, 4442, 4717]","[335, 611, 885, 1161, 1436, 1710, 1987, 2263, 2538, 2814, 3088, 3364, 3640, 3916, 4190, 4466, 4741]","[425, 695, 976, 1252, 1530, 1802, 2074, 2356, 2628, 2911, 3168, 3444, 3733, 4011, 4276, 4556, 4834]","[222, 508, 785, 1057, 1336, 1611, 1853, 2121, 2436, 2710, 2991, 3265, 3538, 3784, 4055, 4354, 4640]","[451, 731, 1003, 1281, 1558, 1832, 2111, 2382, 2710, 2932, 3212, 3488, 3763, 4033, 4306, 4584, 4858]","[172, 458, 735, 1007, 1286, 1561, 1803, 2071, 2386, 2660, 2941, 3215, 3488, 3734, 4005, 4304, 4590]","[501, 781, 1053, 1331, 1608, 1882, 2161, 2432, 2760, 2982, 3262, 3538, 3813, 4083, 4356, 4634, 4908]","[326, 603, 877, 1152, 1427, 1703, 1978, 2254, 2530, 2804, 3080, 3355, 3631, 3906, 4182, 4457, 4733]"
85,"[106, 475, 872, 1386, 1869, 2342, 2777, 3184, 3596, 4051, 4542]","[128, 508, 906, 1417, 1904, 2368, 2814, 3216, 3638, 4086, 4576]","[166, 541, 929, 1446, 1936, 2406, 2840, 3249, 3670, 4123, 4616]","[257, 631, 1025, 1539, 2036, 2501, 2939, 3347, 3767, 4221, 4708]","[-5, 457, 845, 1373, 1851, 2245, 2768, 3165, 3571, 4038, 4485]","[295, 670, 1061, 1588, 2066, 2530, 2972, 3375, 3809, 4262, 4744]","[-55, 407, 795, 1323, 1801, 2195, 2718, 3115, 3521, 3988, 4435]","[345, 720, 1111, 1638, 2116, 2580, 3022, 3425, 3859, 4312, 4794]","[151, 526, 916, 1433, 1923, 2391, 2826, 3234, 3655, 4108, 4601]"
86,"[534, 1089, 1589, 2117, 2506, 2929, 3524, 4069, 4705]","[596, 1130, 1646, 2171, 2569, 2990, 3576, 4130, 4753]","[623, 1154, 1669, 2196, 2593, 3018, 3600, 4156, 4772]","[738, 1271, 1790, 2326, 2721, 3141, 3728, 4281, 4898]","[517, 1057, 1519, 2045, 2448, 2905, 3481, 3982, 4677]","[780, 1332, 1830, 2358, 2741, 3185, 3775, 4313, 4982]","[467, 1007, 1469, 1995, 2398, 2855, 3431, 3932, 4627]","[830, 1382, 1880, 2408, 2791, 3235, 3825, 4363, 5032]","[605, 1141, 1656, 2184, 2580, 3004, 3587, 4141, 4762]"
87,"[88, 278, 675, 1263, 1850, 2406, 2955, 3476, 3676, 4010, 4587]","[140, 400, 726, 1311, 1893, 2463, 3014, 3521, 3761, 4057, 4633]","[166, 410, 750, 1338, 1918, 2489, 3040, 3547, 3769, 4083, 4659]","[278, 492, 867, 1458, 2034, 2605, 3169, 3676, 3806, 4200, 4778]","[28, 253, 656, 1183, 1830, 2360, 2937, 3455, 3646, 3991, 4568]","[333, 503, 898, 1491, 2065, 2634, 3182, 3736, 3816, 4253, 4807]","[-22, 203, 606, 1133, 1780, 2310, 2887, 3405, 3596, 3941, 4518]","[383, 553, 948, 1541, 2115, 2684, 3232, 3786, 3866, 4303, 4857]","[155, 402, 739, 1326, 1907, 2478, 3028, 3536, 3766, 4073, 4648]"
88,"[357, 678, 991, 1348, 1666, 1999, 2345, 2666, 2986, 3349, 3681, 4010, 4331, 4655]","[413, 726, 1066, 1387, 1713, 2057, 2377, 2710, 3058, 3395, 3725, 4045, 4382, 4709]","[446, 768, 1092, 1421, 1753, 2087, 2420, 2754, 3088, 3424, 3755, 4082, 4410, 4739]","[543, 868, 1189, 1522, 1855, 2179, 2525, 2853, 3187, 3520, 3850, 4172, 4509, 4837]","[350, 670, 983, 1336, 1589, 1988, 2321, 2656, 2979, 3329, 3654, 3974, 4285, 4617]","[571, 900, 1227, 1588, 1867, 2232, 2553, 2885, 3228, 3620, 3892, 4226, 4546, 4880]","[300, 620, 933, 1286, 1539, 1938, 2271, 2606, 2929, 3279, 3604, 3924, 4235, 4567]","[621, 950, 1277, 1638, 1917, 2282, 2603, 2935, 3278, 3670, 3942, 4276, 4596, 4930]","[435, 758, 1081, 1411, 1742, 2075, 2409, 2743, 3077, 3413, 3744, 4071, 4398, 4728]"
89,"[147, 612, 1059, 1521, 1975, 2438, 2899, 3367, 3826, 4290, 4751]","[195, 652, 1114, 1572, 2023, 2482, 2948, 3407, 3870, 4338, 4803]","[228, 686, 1153, 1601, 2062, 2516, 2980, 3439, 3909, 4377, 4835]","[359, 824, 1271, 1731, 2191, 2642, 3108, 3578, 4030, 4497, nan]","[129, 571, 1034, 1493, 1955, 2415, 2879, 3335, 3796, 4266, 4731]","[400, 848, 1345, 1765, 2229, 2682, 3171, 3604, 4078, 4538, nan]","[79, 521, 984, 1443, 1905, 2365, 2829, 3285, 3746, 4216, 4681]","[450.0, 898.0, 1395.0, 1815.0, 2279.0, 2732.0, 3221.0, 3654.0, 4128.0, 4588.0, nan]","[213, 669, 1131, 1586, 2040, 2500, 2963, 3425, 3888, 4354, 4820]"
90,"[123, 568, 963, 1328, 1738, 2158, 2521, 2893, 3274, 3694, 4136, 4599]","[199, 629, 1028, 1413, 1810, 2218, 2594, 2953, 3336, 3756, 4212, 4665]","[225, 649, 1050, 1436, 1831, 2241, 2615, 2973, 3359, 3778, 4233, 4685]","[336, 764, 1163, 1544, 1943, 2351, 2728, 3083, 3465, 3889, 4347, 4802]","[100, 526, 912, 1305, 1718, 2104, 2495, 2857, 3219, 3686, 4126, 4591]","[376, 785, 1204, 1565, 1963, 2375, 2748, 3110, 3496, 3920, 4370, 4825]","[50, 476, 862, 1255, 1668, 2054, 2445, 2807, 3169, 3636, 4076, 4541]","[426, 835, 1254, 1615, 2013, 2425, 2798, 3160, 3546, 3970, 4420, 4875]","[213, 642, 1041, 1426, 1821, 2231, 2606, 2966, 3348, 3769, 4225, 4676]"
91,"[224, 736, 1229, 1712, 2223, 2758, 3286, 3787, 4264, 4770]","[296, 798, 1298, 1787, 2297, 2829, 3350, 3847, 4330, 4831]","[328, 831, 1326, 1821, 2329, 2859, 3380, 3879, 4360, 4861]","[448, 948, 1450, 1934, 2446, 2981, 3503, 3998, 4478, 4864]","[189, 699, 1219, 1698, 2210, 2729, 3262, 3760, 4196, 4741]","[476, 978, 1480, 1967, 2478, 3011, 3534, 4028, 4508, 4983]","[139, 649, 1169, 1648, 2160, 2679, 3212, 3710, 4146, 4691]","[526, 1028, 1530, 2017, 2528, 3061, 3584, 4078, 4558, 5033]","[312, 812, 1313, 1801, 2311, 2844, 3363, 3862, 4343, 4846]"
92,"[299, 733, 1048, 1753, 2478, 3208, 3912, 4637]","[349, 794, 1100, 1807, 2532, 3262, 3966, 4687]","[378, 806, 1125, 1834, 2561, 3294, 3991, 4716]","[508, 1048, 1262, 1967, 2697, 3427, 4130, 4852]","[282, 696, 996, 1740, 2445, 3189, 3894, 4623]","[558, 1091, 1304, 1998, 2721, 3461, 4158, 4978]","[232, 646, 946, 1690, 2395, 3139, 3844, 4573]","[608, 1141, 1354, 2048, 2771, 3511, 4208, 5028]","[366, 802, 1113, 1820, 2548, 3281, 3979, 4703]"
93,"[191, 624, 1068, 1473, 1903, 2340, 2800, 3240, 3666, 4120, 4581]","[256, 699, 1126, 1532, 1960, 2411, 2871, 3310, 3736, 4182, 4640]","[281, 721, 1153, 1558, 1985, 2436, 2896, 3334, 3762, 4205, 4664]","[402, 851, 1276, 1675, 2113, 2559, 3023, 3458, 3891, 4335, 4789]","[168, 600, 1045, 1457, 1876, 2314, 2785, 3230, 3644, 4090, 4572]","[436, 885, 1318, 1765, 2138, 2592, 3061, 3498, 3906, 4359, 4827]","[118, 550, 995, 1407, 1826, 2264, 2735, 3180, 3594, 4040, 4522]","[486, 935, 1368, 1815, 2188, 2642, 3111, 3548, 3956, 4409, 4877]","[271, 712, 1144, 1549, 1977, 2426, 2886, 3325, 3752, 4196, 4655]"
94,"[427, 963, 1449, 1935, 2393, 2882, 3337, 3790, 4248, 4689]","[500, 1010, 1496, 2006, 2462, 2926, 3389, 3847, 4298, 4742]","[546, 1040, 1556, 2057, 2491, 2949, 3423, 3874, 4330, 4773]","[639, 1149, 1638, 2145, 2599, 3061, 3533, 3984, 4440, 4881]","[417, 938, 1400, 1926, 2378, 2846, 3325, 3764, 4225, 4671]","[669, 1182, 1661, 2182, 2626, 3098, 3568, 4008, 4478, 4909]","[367, 888, 1350, 1876, 2328, 2796, 3275, 3714, 4175, 4621]","[719, 1232, 1711, 2232, 2676, 3148, 3618, 4058, 4528, 4959]","[516, 1026, 1513, 2020, 2478, 2941, 3409, 3861, 4316, 4759]"
95,"[298, 669, 1048, 1423, 1771, 2173, 2579, 2944, 3330, 3706, 4069, 4463, 4797]","[351, 718, 1097, 1467, 1840, 2218, 2616, 2994, 3364, 3742, 4134, 4501, 4883]","[387, 756, 1134, 1494, 1875, 2255, 2654, 3023, 3396, 3782, 4154, 4534, 4895]","[490, 869, 1240, 1625, 1994, 2367, 2771, 3147, 3507, 3893, 4270, 4652, 4930]","[291, 655, 1027, 1410, 1765, 2146, 2557, 2928, 3304, 3666, 4051, 4449, 4790]","[514, 885, 1292, 1634, 2027, 2390, 2800, 3159, 3552, 3906, 4291, 4688, 4986]","[241, 605, 977, 1360, 1715, 2096, 2507, 2878, 3254, 3616, 4001, 4399, 4740]","[564, 935, 1342, 1684, 2077, 2440, 2850, 3209, 3602, 3956, 4341, 4738, 5036]","[364, 732, 1115, 1484, 1853, 2233, 2632, 3008, 3385, 3758, 4136, 4516, 4886]"
96,"[423, 875, 1339, 1810, 2268, 2716, 3176, 3645, 4096, 4567]","[465, 925, 1391, 1863, 2321, 2771, 3232, 3698, 4150, 4622]","[508, 963, 1426, 1896, 2352, 2802, 3262, 3731, 4180, 4651]","[620, 1061, 1536, 2008, 2461, 2904, 3371, 3831, 4288, 4764]","[412, 847, 1312, 1785, 2242, 2693, 3165, 3607, 4067, 4553]","[649, 1113, 1569, 2036, 2495, 2937, 3403, 3871, 4317, 4787]","[362, 797, 1262, 1735, 2192, 2643, 3115, 3557, 4017, 4503]","[699, 1163, 1619, 2086, 2545, 2987, 3453, 3921, 4367, 4837]","[494, 945, 1412, 1880, 2335, 2787, 3247, 3714, 4166, 4636]"
97,"[281, 733, 1195, 1634, 2074, 2527, 2980, 3422, 3868, 4334, 4801]","[334, 784, 1243, 1661, 2111, 2581, 3009, 3456, 3923, 4362, 4832]","[375, 831, 1284, 1709, 2180, 2652, 3079, 3505, 3981, 4441, 4866]","[480, 927, 1392, 1822, 2272, 2728, 3182, 3622, 4070, 4523, 4870]","[270, 706, 1180, 1621, 2063, 2516, 2963, 3384, 3853, 4291, 4792]","[522, 963, 1437, 1861, 2304, 2762, 3219, 3661, 4102, 4566, 4984]","[220, 656, 1130, 1571, 2013, 2466, 2913, 3334, 3803, 4241, 4742]","[572, 1013, 1487, 1911, 2354, 2812, 3269, 3711, 4152, 4616, 5034]","[348, 799, 1257, 1700, 2142, 2596, 3049, 3491, 3937, 4397, 4858]"
98,"[569, 1182, 1775, 2353, 2941, 3520, 4074, 4669]","[603, 1226, 1807, 2379, 2982, 3549, 4098, 4694]","[660, 1253, 1856, 2425, 3024, 3606, 4157, 4739]","[792, 1389, 1994, 2557, 3163, 3745, 4293, 4873]","[553, 1085, 1641, 2312, 2841, 3491, 3955, 4587]","[830, 1428, 2028, 2596, 3198, 3775, 4327, 4980]","[503, 1035, 1591, 2262, 2791, 3441, 3905, 4537]","[880, 1478, 2078, 2646, 3248, 3825, 4377, 5030]","[643, 1242, 1843, 2411, 3010, 3593, 4141, 4726]"
99,"[372, 942, 1493, 2048, 2592, 3138, 3703, 4284, 4834]","[410, 980, 1524, 2079, 2616, 3167, 3734, 4315, 4873]","[435, 1006, 1557, 2110, 2659, 3200, 3767, 4347, 4900]","[551, 1122, 1674, 2232, 2777, 3316, 3882, 4463, nan]","[354, 929, 1481, 2036, 2538, 3126, 3691, 4256, 4817]","[595, 1155, 1698, 2265, 2813, 3354, 3924, 4501, nan]","[304, 879, 1431, 1986, 2488, 3076, 3641, 4206, 4767]","[645.0, 1205.0, 1748.0, 2315.0, 2863.0, 3404.0, 3974.0, 4551.0, nan]","[425, 991, 1546, 2099, 2650, 3188, 3756, 4336, 4888]"
100,"[388, 888, 1396, 1871, 2369, 2856, 3332, 3807, 4291, 4770]","[442, 943, 1449, 1928, 2425, 2915, 3383, 3863, 4350, 4826]","[472, 971, 1475, 1956, 2453, 2941, 3411, 3891, 4377, 4853]","[591, 1091, 1596, 2077, 2575, 3064, 3531, 4015, 4506, 4925]","[360, 876, 1362, 1839, 2337, 2826, 3313, 3774, 4257, 4747]","[619, 1121, 1628, 2107, 2609, 3093, 3561, 4047, 4529, 4982]","[310, 826, 1312, 1789, 2287, 2776, 3263, 3724, 4207, 4697]","[669, 1171, 1678, 2157, 2659, 3143, 3611, 4097, 4579, 5032]","[457, 958, 1463, 1942, 2440, 2929, 3398, 3878, 4365, 4841]"
101,"[415, 848, 1302, 1754, 2218, 2685, 3137, 3578, 4015, 4471]","[461, 907, 1345, 1805, 2274, 2734, 3187, 3625, 4065, 4521]","[490, 933, 1375, 1835, 2302, 2762, 3213, 3652, 4091, 4549]","[597, 1044, 1484, 1942, 2413, 2864, 3329, 3755, 4195, 4654]","[365, 837, 1290, 1746, 2197, 2648, 3128, 3544, 3943, 4411]","[649, 1098, 1526, 2008, 2448, 2910, 3351, 3839, 4239, 4699]","[315, 787, 1240, 1696, 2147, 2598, 3078, 3494, 3893, 4361]","[699, 1148, 1576, 2058, 2498, 2960, 3401, 3889, 4289, 4749]","[479, 923, 1364, 1824, 2291, 2750, 3201, 3640, 4080, 4537]"
102,"[280, 734, 1191, 1616, 2086, 2565, 2988, 3434, 3905, 4361, 4810]","[345, 799, 1256, 1680, 2140, 2621, 3049, 3499, 3968, 4423, 4873]","[371, 825, 1282, 1709, 2163, 2647, 3077, 3523, 3996, 4453, 4900]","[484, 939, 1398, 1820, 2279, 2759, 3194, 3634, 4111, 4559, 4901]","[257, 683, 1170, 1594, 2056, 2535, 2977, 3421, 3880, 4351, 4787]","[528, 978, 1438, 1850, 2305, 2794, 3226, 3671, 4149, 4601, 4984]","[207, 633, 1120, 1544, 2006, 2485, 2927, 3371, 3830, 4301, 4737]","[578, 1028, 1488, 1900, 2355, 2844, 3276, 3721, 4199, 4651, 5034]","[357, 812, 1269, 1693, 2153, 2633, 3064, 3510, 3982, 4438, 4888]"
103,"[354, 830, 1307, 1767, 2233, 2672, 3123, 3576, 4027, 4472, 4820]","[390, 877, 1350, 1812, 2272, 2702, 3167, 3581, 4068, 4512, 4936]","[425, 906, 1383, 1845, 2301, 2750, 3196, 3646, 4097, 4553, 4946]","[549, 1033, 1510, 1975, 2434, 2875, 3327, 3773, 4220, 4678, 4948]","[264, 811, 1257, 1752, 2217, 2644, 3098, 3513, 3998, 4404, 4809]","[597, 1083, 1551, 2004, 2470, 2946, 3382, 3804, 4273, 4712, 4985]","[214, 761, 1207, 1702, 2167, 2594, 3048, 3463, 3948, 4354, 4759]","[647, 1133, 1601, 2054, 2520, 2996, 3432, 3854, 4323, 4762, 5035]","[408, 889, 1365, 1829, 2286, 2733, 3181, 3629, 4081, 4536, 4940]"
104,"[179, 724, 1277, 1782, 2288, 2759, 3241, 3645, 4041, 4609]","[226, 785, 1319, 1837, 2328, 2817, 3285, 3689, 4086, 4669]","[252, 811, 1345, 1870, 2358, 2849, 3314, 3723, 4115, 4702]","[372, 934, 1470, 1988, 2480, 2969, 3436, 3836, 4233, 4819]","[137, 708, 1226, 1760, 2245, 2735, 3210, 3556, 4012, 4594]","[412, 974, 1507, 2018, 2506, 2998, 3456, 3880, 4261, 4850]","[87, 658, 1176, 1710, 2195, 2685, 3160, 3506, 3962, 4544]","[462, 1024, 1557, 2068, 2556, 3048, 3506, 3930, 4311, 4900]","[238, 800, 1331, 1853, 2342, 2831, 3297, 3704, 4099, 4683]"
105,"[210, 588, 962, 1327, 1702, 2072, 2440, 2813, 3180, 3558, 3932, 4310, 4684]","[243, 612, 993, 1366, 1733, 2090, 2481, 2850, 3205, 3589, 3972, 4344, 4716]","[281, 659, 1025, 1396, 1779, 2140, 2513, 2879, 3251, 3633, 4001, 4379, 4748]","[380, 762, 1121, 1487, 1868, 2232, 2629, 2986, 3342, 3721, 4103, 4478, 4837]","[144, 575, 941, 1294, 1684, 2049, 2351, 2782, 3160, 3513, 3910, 4289, 4657]","[428, 797, 1167, 1526, 1901, 2288, 2656, 3010, 3413, 3750, 4134, 4522, 4884]","[94, 525, 891, 1244, 1634, 1999, 2301, 2732, 3110, 3463, 3860, 4239, 4607]","[478, 847, 1217, 1576, 1951, 2338, 2706, 3060, 3463, 3800, 4184, 4572, 4934]","[269, 644, 1013, 1385, 1754, 2127, 2499, 2867, 3237, 3608, 3990, 4367, 4735]"
106,"[262, 657, 1018, 1384, 1765, 2149, 2525, 2916, 3285, 3678, 4073, 4438, 4808]","[340, 711, 1077, 1442, 1814, 2195, 2588, 2967, 3346, 3730, 4116, 4498, 4873]","[371, 737, 1104, 1470, 1843, 2225, 2616, 2996, 3374, 3758, 4147, 4525, 4904]","[475, 838, 1203, 1574, 1942, 2326, 2713, 3099, 3480, 3863, 4248, 4628, 4930]","[252, 607, 988, 1375, 1713, 2105, 2517, 2899, 3277, 3638, 4025, 4430, 4786]","[499, 862, 1244, 1633, 1998, 2355, 2757, 3132, 3501, 3882, 4281, 4663, 4987]","[202, 557, 938, 1325, 1663, 2055, 2467, 2849, 3227, 3588, 3975, 4380, 4736]","[549, 912, 1294, 1683, 2048, 2405, 2807, 3182, 3551, 3932, 4331, 4713, 5037]","[354, 720, 1086, 1453, 1824, 2208, 2596, 2980, 3357, 3742, 4129, 4510, 4886]"
107,"[207, 635, 1110, 1608, 2081, 2519, 2978, 3473, 3981, 4439, 4848]","[279, 710, 1178, 1670, 2145, 2586, 3045, 3547, 4050, 4507, 4867]","[330, 765, 1225, 1733, 2208, 2650, 3090, 3603, 4115, 4565, 4914]","[415, 841, 1314, 1812, 2281, 2720, 3177, 3679, 4192, 4640, 4917]","[165, 625, 1043, 1564, 2042, 2509, 2952, 3463, 3954, 4424, 4811]","[446, 868, 1343, 1839, 2319, 2744, 3213, 3710, 4205, 4667, 4984]","[115, 575, 993, 1514, 1992, 2459, 2902, 3413, 3904, 4374, 4761]","[496, 918, 1393, 1889, 2369, 2794, 3263, 3760, 4255, 4717, 5034]","[296, 727, 1195, 1687, 2161, 2602, 3061, 3565, 4066, 4524, 4899]"
108,"[421, 933, 1372, 1856, 2363, 2841, 3274, 3782, 4177, 4694, 4887]","[479, 977, 1424, 1895, 2406, 2886, 3327, 3824, 4231, 4756, 4922]","[515, 1003, 1451, 1926, 2436, 2911, 3355, 3857, 4266, 4784, 4930]","[601, 1108, 1552, 2027, 2527, 3014, 3448, 3956, 4366, 4887, 4937]","[401, 899, 1342, 1841, 2324, 2812, 3195, 3723, 4126, 4685, 4786]","[633, 1125, 1575, 2071, 2555, 3054, 3479, 4046, 4386, 4938, 4985]","[351, 849, 1292, 1791, 2274, 2762, 3145, 3673, 4076, 4635, 4736]","[683, 1175, 1625, 2121, 2605, 3104, 3529, 4096, 4436, 4988, 5035]","[497, 988, 1437, 1910, 2418, 2897, 3340, 3839, 4251, 4767, 4926]"
109,"[288, 858, 1420, 1982, 2527, 3083, 3655, 4224, 4786]","[345, 927, 1481, 1994, 2560, 3119, 3725, 4291, 4852]","[375, 952, 1516, 2061, 2614, 3177, 3750, 4321, 4877]","[492, 1068, 1635, 2177, 2734, 3288, 3871, 4432, 4889]","[274, 845, 1386, 1949, 2508, 3072, 3603, 4202, 4728]","[523, 1096, 1663, 2212, 2764, 3330, 3907, 4470, 4981]","[224, 795, 1336, 1899, 2458, 3022, 3553, 4152, 4678]","[573, 1146, 1713, 2262, 2814, 3380, 3957, 4520, 5031]","[363, 940, 1504, 2049, 2604, 3165, 3738, 4310, 4866]"
110,"[339, 660, 1107, 1502, 1892, 2316, 2702, 3104, 3514, 3913, 4323, 4715]","[360, 764, 1148, 1541, 1934, 2344, 2742, 3130, 3544, 3960, 4350, 4752]","[406, 796, 1181, 1570, 1972, 2378, 2777, 3177, 3582, 3990, 4394, 4791]","[497, 893, 1266, 1666, 2072, 2478, 2877, 3276, 3675, 4079, 4490, 4886]","[312, 646, 1093, 1440, 1866, 2237, 2658, 3034, 3488, 3889, 4257, 4683]","[532, 924, 1311, 1693, 2114, 2511, 2910, 3351, 3696, 4115, 4547, 4929]","[262, 596, 1043, 1390, 1816, 2187, 2608, 2984, 3438, 3839, 4207, 4633]","[582, 974, 1361, 1743, 2164, 2561, 2960, 3401, 3746, 4165, 4597, 4979]","[393, 783, 1168, 1556, 1958, 2367, 2764, 3164, 3568, 3979, 4381, 4778]"
111,"[276, 710, 1104, 1531, 1926, 2311, 2690, 3078, 3445, 3869, 4251, 4658]","[305, 750, 1153, 1555, 1967, 2345, 2728, 3121, 3478, 3918, 4306, 4699]","[352, 787, 1191, 1610, 2000, 2386, 2763, 3154, 3524, 3953, 4336, 4743]","[474, 907, 1314, 1728, 2124, 2512, 2885, 3279, 3650, 4076, 4465, 4870]","[244, 668, 1095, 1515, 1888, 2302, 2661, 3018, 3414, 3855, 4198, 4644]","[499, 946, 1340, 1760, 2149, 2533, 2910, 3314, 3694, 4103, 4487, 4895]","[194, 618, 1045, 1465, 1838, 2252, 2611, 2968, 3364, 3805, 4148, 4594]","[549, 996, 1390, 1810, 2199, 2583, 2960, 3364, 3744, 4153, 4537, 4945]","[337, 775, 1177, 1596, 1986, 2376, 2750, 3140, 3513, 3939, 4324, 4731]"
112,"[335, 659, 840, 1348, 1670, 1867, 2370, 2707, 3042, 3433, 3836, 4224, 4603]","[372, 725, 914, 1405, 1731, 1934, 2427, 2782, 3118, 3488, 3883, 4283, 4677]","[408, 755, 1053, 1427, 1774, 2068, 2453, 2803, 3148, 3510, 3915, 4313, 4706]","[507, 840, nan, 1529, 1972, nan, 2549, 2890, 3237, 3611, 4007, 4414, 4798]","[320, 646, 826, 1334, 1659, 1800, 2358, 2684, 3005, 3388, 3800, 4188, 4586]","[519, 941, nan, 1572, 1988, nan, 2606, 2904, 3280, 3654, 4051, 4448, 4842]","[270, 596, 776, 1284, 1609, 1750, 2308, 2634, 2955, 3338, 3750, 4138, 4536]","[569.0, 991.0, nan, 1622.0, 2038.0, nan, 2656.0, 2954.0, 3330.0, 3704.0, 4101.0, 4498.0, 4892.0]","[404, 743, 962, 1423, 1763, 1972, 2447, 2792, 3137, 3507, 3903, 4302, 4695]"
113,"[159, 525, 891, 1276, 1669, 2051, 2423, 2791, 3165, 3538, 3916, 4305, 4682]","[225, 596, 962, 1342, 1729, 2115, 2492, 2862, 3233, 3607, 3984, 4369, 4749]","[255, 621, 988, 1379, 1753, 2140, 2517, 2890, 3288, 3637, 4011, 4399, 4777]","[350, 723, 1083, 1468, 1854, 2238, 2622, 2979, 3368, 3738, 4109, 4496, 4877]","[151, 497, 855, 1255, 1631, 2018, 2413, 2782, 3156, 3502, 3881, 4263, 4639]","[380, 764, 1119, 1503, 1881, 2268, 2642, 3020, 3400, 3775, 4146, 4533, 4901]","[101, 447, 805, 1205, 1581, 1968, 2363, 2732, 3106, 3452, 3831, 4213, 4589]","[430, 814, 1169, 1553, 1931, 2318, 2692, 3070, 3450, 3825, 4196, 4583, 4951]","[240, 608, 975, 1356, 1744, 2128, 2505, 2878, 3249, 3622, 4000, 4387, 4764]"
114,"[303, 687, 1059, 1444, 1827, 2211, 2594, 2986, 3371, 3744, 4119, 4490, 4882]","[354, 741, 1110, 1492, 1864, 2254, 2641, 3033, 3419, 3795, 4170, 4541, 4928]","[408, 794, 1162, 1552, 1917, 2298, 2692, 3079, 3478, 3843, 4232, 4594, 4948]","[474, 867, 1235, 1620, 1996, 2377, 2773, 3161, 3542, 3919, 4298, 4673, nan]","[280, 671, 1037, 1414, 1812, 2177, 2558, 2962, 3332, 3735, 4105, 4477, 4865]","[530, 877, 1272, 1652, 2020, 2417, 2803, 3189, 3583, 3955, 4327, 4703, nan]","[230, 621, 987, 1364, 1762, 2127, 2508, 2912, 3282, 3685, 4055, 4427, 4815]","[580.0, 927.0, 1322.0, 1702.0, 2070.0, 2467.0, 2853.0, 3239.0, 3633.0, 4005.0, 4377.0, 4753.0, nan]","[372, 754, 1127, 1506, 1882, 2268, 2658, 3047, 3438, 3810, 4187, 4557, 4945]"
115,"[482, 1106, 1725, 2324, 2919, 3510, 4095, 4710]","[548, 1159, 1778, 2375, 2971, 3559, 4163, 4762]","[573, 1192, 1809, 2402, 3000, 3592, 4195, 4788]","[706, 1326, 1935, 2537, 3128, 3728, 4327, 4921]","[469, 1069, 1676, 2287, 2841, 3481, 4086, 4697]","[742, 1351, 1974, 2568, 3155, 3755, 4351, 4978]","[419, 1019, 1626, 2237, 2791, 3431, 4036, 4647]","[792, 1401, 2024, 2618, 3205, 3805, 4401, 5028]","[565, 1177, 1795, 2391, 2983, 3581, 4180, 4779]"
116,"[485, 1093, 1690, 2228, 2781, 3409, 4012, 4562]","[526, 1147, 1735, 2278, 2835, 3454, 4062, 4628]","[550, 1168, 1752, 2302, 2858, 3477, 4085, 4645]","[668, 1302, 1884, 2417, 2990, 3598, 4219, 4783]","[452, 986, 1656, 2198, 2698, 3371, 3889, 4477]","[719, 1336, 1916, 2471, 3024, 3642, 4248, 4810]","[402, 936, 1606, 2148, 2648, 3321, 3839, 4427]","[769, 1386, 1966, 2521, 3074, 3692, 4298, 4860]","[538, 1157, 1742, 2289, 2847, 3468, 4072, 4635]"
117,"[514, 959, 1422, 1882, 2332, 2782, 3220, 3682, 4128, 4573]","[557, 1020, 1440, 1905, 2376, 2789, 3281, 3707, 4180, 4631]","[590, 1045, 1499, 1955, 2403, 2853, 3307, 3760, 4216, 4671]","[704, 1162, 1620, 2067, 2522, 2967, 3424, 3889, 4340, 4793]","[483, 935, 1364, 1844, 2256, 2742, 3180, 3611, 4071, 4534]","[754, 1204, 1648, 2109, 2553, 3056, 3467, 3915, 4372, 4815]","[433, 885, 1314, 1794, 2206, 2692, 3130, 3561, 4021, 4484]","[804, 1254, 1698, 2159, 2603, 3106, 3517, 3965, 4422, 4865]","[582, 1037, 1490, 1945, 2395, 2844, 3297, 3751, 4208, 4662]"
118,"[135, 501, 879, 1256, 1620, 2006, 2407, 2813, 3221, 3615, 4011, 4406, 4801]","[186, 560, 934, 1303, 1680, 2063, 2461, 2861, 3272, 3673, 4066, 4461, 4854]","[207, 598, 957, 1327, 1701, 2088, 2496, 2888, 3295, 3696, 4090, 4484, 4883]","[324, 693, 1070, 1440, 1818, 2202, 2600, 3004, 3409, 3808, 4200, 4603, 4886]","[101, 491, 866, 1226, 1601, 1980, 2390, 2788, 3159, 3599, 3991, 4387, 4775]","[344, 723, 1095, 1472, 1838, 2233, 2624, 3032, 3439, 3838, 4238, 4623, 4987]","[51, 441, 816, 1176, 1551, 1930, 2340, 2738, 3109, 3549, 3941, 4337, 4725]","[394, 773, 1145, 1522, 1888, 2283, 2674, 3082, 3489, 3888, 4288, 4673, 5037]","[194, 571, 944, 1315, 1689, 2074, 2473, 2875, 3281, 3683, 4076, 4472, 4870]"
119,"[615, 1187, 1761, 2335, 2885, 3445, 3995, 4541]","[682, 1254, 1823, 2393, 2956, 3494, 4062, 4605]","[715, 1284, 1850, 2426, 2985, 3525, 4096, 4636]","[835, 1409, 1977, 2549, 3110, 3651, 4219, 4760]","[521, 1140, 1736, 2259, 2869, 3413, 3968, 4464]","[862, 1440, 2010, 2575, 3138, 3685, 4257, 4788]","[471, 1090, 1686, 2209, 2819, 3363, 3918, 4414]","[912, 1490, 2060, 2625, 3188, 3735, 4307, 4838]","[694, 1266, 1834, 2405, 2967, 3508, 4074, 4617]"
120,"[188, 607, 1070, 1554, 2009, 2423, 2837, 3230, 3643, 4081, 4526, 4833]","[219, 645, 1092, 1583, 2041, 2443, 2869, 3268, 3677, 4095, 4560, 4883]","[247, 672, 1135, 1613, 2066, 2490, 2894, 3293, 3705, 4140, 4586, 4935]","[366, 794, 1252, 1729, 2185, 2609, 3016, 3410, 3827, 4256, 4709, nan]","[130, 585, 1045, 1502, 1973, 2364, 2771, 3208, 3583, 4025, 4504, 4817]","[405, 829, 1299, 1764, 2222, 2667, 3048, 3433, 3845, 4287, 4729, nan]","[80, 535, 995, 1452, 1923, 2314, 2721, 3158, 3533, 3975, 4454, 4767]","[455.0, 879.0, 1349.0, 1814.0, 2272.0, 2717.0, 3098.0, 3483.0, 3895.0, 4337.0, 4779.0, nan]","[235, 660, 1121, 1598, 2053, 2476, 2882, 3282, 3690, 4126, 4573, 4924]"
121,"[400, 733, 1064, 1464, 1925, 2415, 2869, 3283, 3695, 4104, 4567, 4878]","[441, 778, 1119, 1515, 1976, 2450, 2911, 3332, 3738, 4160, 4602, 4906]","[467, 805, 1145, 1540, 2003, 2477, 2937, 3360, 3764, 4183, 4629, 4916]","[580, 914, 1264, 1657, 2115, 2605, 3053, 3476, 3880, 4304, 4748, 4918]","[390, 714, 1055, 1457, 1913, 2336, 2832, 3235, 3637, 4073, 4548, 4809]","[612, 975, 1296, 1680, 2156, 2631, 3105, 3509, 3903, 4326, 4809, 4986]","[340, 664, 1005, 1407, 1863, 2286, 2782, 3185, 3587, 4023, 4498, 4759]","[662, 1025, 1346, 1730, 2206, 2681, 3155, 3559, 3953, 4376, 4859, 5036]","[453, 790, 1133, 1525, 1988, 2465, 2922, 3346, 3749, 4170, 4615, 4908]"
122,"[217, 694, 1218, 1695, 2233, 2771, 3301, 3802, 4299, 4793]","[268, 734, 1269, 1732, 2271, 2821, 3349, 3828, 4351, 4835]","[298, 785, 1298, 1766, 2302, 2848, 3380, 3871, 4375, 4867]","[419, 905, 1417, 1884, 2423, 2971, 3498, 3988, 4499, nan]","[191, 683, 1189, 1682, 2221, 2754, 3266, 3765, 4276, 4758]","[450, 934, 1453, 1917, 2454, 3008, 3533, 4023, 4531, nan]","[141, 633, 1139, 1632, 2171, 2704, 3216, 3715, 4226, 4708]","[500.0, 984.0, 1503.0, 1967.0, 2504.0, 3058.0, 3583.0, 4073.0, 4581.0, nan]","[284, 771, 1283, 1751, 2288, 2837, 3365, 3857, 4365, 4852]"
123,"[212, 569, 922, 1244, 1558, 1915, 2256, 2633, 2936, 3285, 3631, 3978, 4320, 4659]","[275, 631, 976, 1302, 1645, 1979, 2313, 2658, 3017, 3344, 3704, 4054, 4395, 4718]","[304, 659, 1010, 1325, 1672, 2014, 2347, 2688, 3031, 3377, 3719, 4067, 4406, 4750]","[381, 751, 1085, 1420, 1751, 2106, 2431, 2759, 3115, 3465, 3809, 4159, 4481, 4848]","[202, 519, 841, 1230, 1551, 1901, 2211, 2613, 2860, 3221, 3551, 3916, 4308, 4638]","[415, 841, 1112, 1456, 1806, 2117, 2510, 2861, 3221, 3512, 3886, 4193, 4564, 4874]","[152, 469, 791, 1180, 1501, 1851, 2161, 2563, 2810, 3171, 3501, 3866, 4258, 4588]","[465, 891, 1162, 1506, 1856, 2167, 2560, 2911, 3271, 3562, 3936, 4243, 4614, 4924]","[291, 649, 993, 1323, 1661, 1998, 2336, 2676, 3019, 3366, 3710, 4056, 4397, 4738]"
124,"[184, 588, 979, 1371, 1770, 2172, 2568, 2945, 3356, 3734, 4120, 4505, 4894]","[254, 643, 1042, 1439, 1837, 2232, 2629, 3017, 3408, 3799, 4189, 4573, 4917]","[280, 673, 1073, 1470, 1869, 2262, 2657, 3046, 3441, 3831, 4216, 4602, 4930]","[373, 767, 1172, 1562, 1972, 2358, 2759, 3149, 3535, 3932, 4320, 4697, 4945]","[168, 561, 961, 1362, 1741, 2148, 2556, 2935, 3300, 3725, 4098, 4480, 4811]","[399, 817, 1213, 1612, 2003, 2387, 2823, 3192, 3582, 3973, 4358, 4759, 4986]","[118, 511, 911, 1312, 1691, 2098, 2506, 2885, 3250, 3675, 4048, 4430, 4761]","[449, 867, 1263, 1662, 2053, 2437, 2873, 3242, 3632, 4023, 4408, 4809, 5036]","[267, 660, 1059, 1455, 1852, 2248, 2645, 3033, 3425, 3815, 4203, 4588, 4928]"
125,"[180, 544, 883, 1243, 1591, 1969, 2329, 2708, 3075, 3439, 3814, 4201, 4585]","[235, 590, 926, 1292, 1650, 2017, 2390, 2764, 3132, 3499, 3870, 4256, 4626]","[255, 616, 952, 1318, 1676, 2039, 2411, 2788, 3155, 3525, 3894, 4279, 4668]","[359, 720, 1051, 1417, 1781, 2146, 2519, 2895, 3257, 3627, 3996, 4387, 4772]","[163, 509, 854, 1221, 1566, 1907, 2305, 2692, 3052, 3425, 3795, 4186, 4512]","[388, 754, 1083, 1451, 1810, 2181, 2553, 2921, 3290, 3662, 4036, 4431, 4807]","[113, 459, 804, 1171, 1516, 1857, 2255, 2642, 3002, 3375, 3745, 4136, 4462]","[438, 804, 1133, 1501, 1860, 2231, 2603, 2971, 3340, 3712, 4086, 4481, 4857]","[247, 604, 941, 1306, 1663, 2031, 2403, 2777, 3145, 3513, 3884, 4271, 4656]"
126,"[381, 861, 1315, 1823, 2299, 2779, 3265, 3787, 4285, 4775]","[426, 878, 1382, 1868, 2341, 2838, 3302, 3828, 4327, 4832]","[450, 931, 1413, 1892, 2371, 2862, 3357, 3858, 4357, 4857]","[580, 1056, 1542, 2019, 2500, 2991, 3493, 3984, 4485, nan]","[370, 833, 1251, 1808, 2211, 2764, 3254, 3773, 4271, 4758]","[613, 1093, 1574, 2057, 2534, 3029, 3520, 4021, 4523, nan]","[320, 783, 1201, 1758, 2161, 2714, 3204, 3723, 4221, 4708]","[663.0, 1143.0, 1624.0, 2107.0, 2584.0, 3079.0, 3570.0, 4071.0, 4573.0, nan]","[437, 917, 1399, 1879, 2357, 2848, 3344, 3845, 4343, 4843]"
127,"[474, 1044, 1602, 2169, 2702, 3258, 3474, 3861, 4479]","[534, 1104, 1641, 2239, 2775, 3324, 3630, 3925, 4540]","[565, 1143, 1700, 2267, 2802, 3354, 3637, 3958, 4572]","[684, 1258, 1821, 2395, 2926, 3474, 3861, 4078, 4699]","[441, 1004, 1591, 2159, 2676, 3248, 3465, 3828, 4463]","[721, 1305, 1852, 2421, 2959, 3509, 3878, 4131, 4723]","[391, 954, 1541, 2109, 2626, 3198, 3415, 3778, 4413]","[771, 1355, 1902, 2471, 3009, 3559, 3928, 4181, 4773]","[551, 1128, 1686, 2252, 2788, 3340, 3635, 3942, 4557]"
128,"[273, 767, 1246, 1737, 2217, 2716, 3222, 3691, 4172, 4670]","[320, 818, 1292, 1764, 2272, 2771, 3264, 3741, 4207, 4726]","[337, 835, 1316, 1799, 2296, 2809, 3287, 3758, 4234, 4748]","[466, 963, 1447, 1925, 2425, 2929, 3416, 3892, 4370, 4876]","[241, 714, 1165, 1633, 2206, 2705, 3186, 3655, 4096, 4651]","[507, 994, 1483, 2019, 2458, 2979, 3444, 3933, 4393, 4907]","[191, 664, 1115, 1583, 2156, 2655, 3136, 3605, 4046, 4601]","[557, 1044, 1533, 2069, 2508, 3029, 3494, 3983, 4443, 4957]","[328, 826, 1306, 1790, 2286, 2791, 3277, 3749, 4225, 4739]"
129,"[286, 601, 915, 1232, 1544, 1850, 2162, 2466, 2785, 3095, 3408, 3732, 4060, 4412, 4755]","[332, 646, 964, 1277, 1590, 1900, 2206, 2514, 2827, 3137, 3454, 3776, 4111, 4456, 4795]","[356, 671, 983, 1301, 1609, 1919, 2229, 2535, 2851, 3162, 3475, 3797, 4130, 4480, 4820]","[445, 754, 1074, 1383, 1697, 2005, 2314, 2613, 2932, 3256, 3561, 3890, 4218, 4559, 4899]","[270, 565, 905, 1221, 1494, 1777, 2143, 2441, 2747, 3064, 3378, 3675, 3972, 4404, 4699]","[491, 798, 1160, 1419, 1729, 2053, 2354, 2654, 2962, 3299, 3607, 3973, 4252, 4593, 4984]","[220, 515, 855, 1171, 1444, 1727, 2093, 2391, 2697, 3014, 3328, 3625, 3922, 4354, 4649]","[541, 848, 1210, 1469, 1779, 2103, 2404, 2704, 3012, 3349, 3657, 4023, 4302, 4643, 5034]","[344, 661, 975, 1288, 1600, 1911, 2217, 2525, 2839, 3154, 3466, 3789, 4122, 4468, 4808]"
130,"[426, 845, 1262, 1673, 2100, 2527, 2943, 3357, 3768, 4186, 4598]","[470, 885, 1300, 1718, 2136, 2559, 2982, 3403, 3813, 4221, 4638]","[494, 907, 1321, 1741, 2160, 2583, 3005, 3426, 3836, 4245, 4661]","[623, 1034, 1451, 1867, 2289, 2711, 3134, 3548, 3964, 4378, 4792]","[358, 769, 1237, 1652, 2063, 2492, 2920, 3336, 3731, 4162, 4524]","[649, 1070, 1471, 1898, 2304, 2749, 3166, 3575, 3980, 4414, 4826]","[308, 719, 1187, 1602, 2013, 2442, 2870, 3286, 3681, 4112, 4474]","[699, 1120, 1521, 1948, 2354, 2799, 3216, 3625, 4030, 4464, 4876]","[484, 896, 1312, 1731, 2150, 2572, 2996, 3416, 3826, 4235, 4651]"
131,"[407, 759, 1109, 1465, 1808, 2152, 2514, 2870, 3224, 3577, 3945, 4303, 4650]","[449, 803, 1156, 1503, 1844, 2195, 2555, 2912, 3268, 3620, 3986, 4343, 4694]","[483, 827, 1180, 1530, 1875, 2226, 2584, 2940, 3295, 3647, 4016, 4368, 4723]","[569, 921, 1272, 1623, 1971, 2319, 2678, 3029, 3394, 3737, 4106, 4458, 4819]","[370, 737, 1057, 1408, 1766, 2131, 2433, 2820, 3202, 3546, 3902, 4260, 4611]","[605, 949, 1305, 1651, 2002, 2347, 2708, 3063, 3417, 3768, 4136, 4493, 4846]","[320, 687, 1007, 1358, 1716, 2081, 2383, 2770, 3152, 3496, 3852, 4210, 4561]","[655, 999, 1355, 1701, 2052, 2397, 2758, 3113, 3467, 3818, 4186, 4543, 4896]","[466, 814, 1168, 1518, 1864, 2214, 2572, 2928, 3282, 3635, 3999, 4356, 4711]"
132,"[153, 733, 1299, 1842, 2406, 2973, 3541, 4095, 4659]","[203, 783, 1357, 1897, 2452, 3022, 3588, 4154, 4715]","[242, 813, 1383, 1924, 2479, 3063, 3617, 4180, 4745]","[338, 921, 1493, 2033, 2587, 3164, 3724, 4289, 4853]","[134, 715, 1284, 1830, 2360, 2933, 3511, 4081, 4627]","[380, 951, 1525, 2069, 2616, 3189, 3758, 4322, 4980]","[84, 665, 1234, 1780, 2310, 2883, 3461, 4031, 4577]","[430, 1001, 1575, 2119, 2666, 3239, 3808, 4372, 5030]","[217, 797, 1368, 1909, 2464, 3033, 3602, 4165, 4729]"
133,"[343, 821, 1019, 1328, 1829, 2289, 2743, 3253, 3773, 4283, 4750]","[381, 865, 1068, 1371, 1874, 2354, 2807, 3304, 3830, 4342, 4809]","[407, 889, 1107, 1394, 1904, 2375, 2832, 3329, 3855, 4365, 4835]","[553, 1019, 1166, 1517, 2015, 2486, 2948, 3449, 3973, 4476, 4917]","[303, 760, 946, 1302, 1803, 2280, 2734, 3217, 3760, 4239, 4723]","[562, 1053, 1302, 1568, 2043, 2574, 3012, 3494, 4034, 4556, 4984]","[253, 710, 896, 1252, 1753, 2230, 2684, 3167, 3710, 4189, 4673]","[612, 1103, 1352, 1618, 2093, 2624, 3062, 3544, 4084, 4606, 5034]","[399, 879, 1098, 1385, 1888, 2367, 2823, 3319, 3845, 4357, 4825]"
134,"[257, 564, 862, 1172, 1467, 1760, 2060, 2374, 2657, 2951, 3251, 3555, 3875, 4183, 4489, 4773]","[323, 621, 925, 1232, 1531, 1826, 2124, 2425, 2722, 3016, 3313, 3620, 3937, 4247, 4547, 4842]","[356, 652, 954, 1262, 1560, 1861, 2159, 2456, 2751, 3044, 3349, 3655, 3966, 4274, 4577, 4875]","[437, 735, 1035, 1344, 1639, 1936, 2236, 2536, 2837, 3131, 3422, 3724, 4051, 4356, 4672, nan]","[234, 507, 846, 1163, 1408, 1735, 2033, 2362, 2616, 2925, 3232, 3543, 3863, 4156, 4457, 4755]","[466, 767, 1076, 1361, 1736, 1975, 2284, 2616, 2871, 3154, 3463, 3769, 4087, 4392, 4691, nan]","[184, 457, 796, 1113, 1358, 1685, 1983, 2312, 2566, 2875, 3182, 3493, 3813, 4106, 4407, 4705]","[516.0, 817.0, 1126.0, 1411.0, 1786.0, 2025.0, 2334.0, 2666.0, 2921.0, 3204.0, 3513.0, 3819.0, 4137.0, 4442.0, 4741.0, nan]","[336, 636, 940, 1248, 1546, 1839, 2139, 2441, 2736, 3030, 3328, 3633, 3952, 4261, 4561, 4856]"
135,"[402, 832, 1266, 1691, 2128, 2558, 2988, 3414, 3847, 4282, 4704]","[439, 866, 1301, 1737, 2165, 2602, 3022, 3452, 3867, 4317, 4749]","[463, 896, 1324, 1757, 2189, 2621, 3047, 3476, 3908, 4343, 4773]","[578, 1007, 1434, 1869, 2300, 2735, 3158, 3590, 4025, 4457, 4883]","[369, 815, 1255, 1673, 2107, 2535, 2976, 3385, 3834, 4225, 4654]","[613, 1051, 1476, 1896, 2333, 2766, 3189, 3620, 4050, 4479, 4916]","[319, 765, 1205, 1623, 2057, 2485, 2926, 3335, 3784, 4175, 4604]","[663, 1101, 1526, 1946, 2383, 2816, 3239, 3670, 4100, 4529, 4966]","[454, 887, 1315, 1746, 2180, 2612, 3037, 3466, 3899, 4332, 4764]"
136,"[342, 707, 1078, 1436, 1799, 2186, 2540, 2920, 3275, 3631, 4014, 4395, 4776]","[389, 752, 1123, 1486, 1851, 2230, 2599, 2961, 3315, 3684, 4060, 4441, 4818]","[449, 796, 1206, 1550, 1927, 2302, 2649, 3029, 3382, 3769, 4122, 4500, 4892]","[520, 887, 1260, 1624, 1983, 2360, 2730, 3098, 3454, 3815, 4193, 4575, 4917]","[312, 670, 1049, 1416, 1788, 2141, 2511, 2879, 3227, 3619, 3978, 4358, 4709]","[552, 920, 1283, 1652, 2023, 2399, 2761, 3136, 3486, 3853, 4231, 4608, 4983]","[262, 620, 999, 1366, 1738, 2091, 2461, 2829, 3177, 3569, 3928, 4308, 4659]","[602, 970, 1333, 1702, 2073, 2449, 2811, 3186, 3536, 3903, 4281, 4658, 5033]","[404, 768, 1138, 1500, 1868, 2245, 2616, 2980, 3336, 3699, 4077, 4456, 4835]"
137,"[180, 590, 1018, 1464, 1887, 2308, 2740, 3173, 3584, 3995, 4426, 4859]","[227, 637, 1070, 1516, 1942, 2359, 2791, 3224, 3637, 4048, 4473, 4915]","[262, 663, 1103, 1549, 1968, 2387, 2821, 3257, 3670, 4081, 4510, nan]","[371, 778, 1212, 1656, 2079, 2499, 2936, 3364, 3778, 4191, 4613, nan]","[125, 552, 975, 1411, 1877, 2284, 2665, 3141, 3547, 3969, 4359, 4832]","[405, 819, 1244, 1686, 2124, 2531, 2957, 3399, 3809, 4218, 4646, nan]","[75, 502, 925, 1361, 1827, 2234, 2615, 3091, 3497, 3919, 4309, 4782]","[455.0, 869.0, 1294.0, 1736.0, 2174.0, 2581.0, 3007.0, 3449.0, 3859.0, 4268.0, 4696.0, nan]","[244, 651, 1085, 1530, 1956, 2375, 2805, 3239, 3651, 4063, 4490, 4931]"
138,"[254, 563, 895, 1244, 1634, 2063, 2414, 2649, 2907, 3305, 3690, 4077, 4373, 4815]","[313, 622, 951, 1306, 1695, 2115, 2540, 2763, 2967, 3365, 3751, 4136, 4508, 4872]","[328, 637, 965, 1314, 1709, 2125, 2551, 2780, 2979, 3378, 3763, 4148, 4522, 4885]","[429, 756, 1072, 1434, 1828, 2242, 2649, 2972, 3089, 3491, 3879, 4256, 4631, 4887]","[232, 498, 870, 1158, 1608, 2016, 2404, 2638, 2859, 3294, 3676, 4065, 4363, 4749]","[461, 787, 1103, 1463, 1841, 2319, 2702, 2986, 3180, 3570, 3963, 4296, 4665, 4982]","[182, 448, 820, 1108, 1558, 1966, 2354, 2588, 2809, 3244, 3626, 4015, 4313, 4699]","[511, 837, 1153, 1513, 1891, 2369, 2752, 3036, 3230, 3620, 4013, 4346, 4715, 5032]","[321, 632, 959, 1311, 1703, 2122, 2545, 2766, 2972, 3372, 3757, 4142, 4515, 4880]"
139,"[238, 688, 1143, 1574, 2013, 2470, 2921, 3358, 3805, 4258, 4698]","[256, 723, 1191, 1608, 2061, 2518, 2970, 3402, 3853, 4284, 4728]","[306, 753, 1217, 1632, 2089, 2543, 2994, 3425, 3881, 4324, 4764]","[439, 882, 1350, 1760, 2220, 2674, 3130, 3555, 4012, 4461, 4893]","[212, 618, 1130, 1498, 2002, 2393, 2900, 3290, 3777, 4244, 4668]","[461, 914, 1374, 1790, 2248, 2706, 3155, 3589, 4036, 4484, 4920]","[162, 568, 1080, 1448, 1952, 2343, 2850, 3240, 3727, 4194, 4618]","[511, 964, 1424, 1840, 2298, 2756, 3205, 3639, 4086, 4534, 4970]","[292, 742, 1205, 1621, 2074, 2531, 2984, 3414, 3868, 4315, 4752]"
140,"[388, 881, 1351, 1809, 2276, 2733, 3216, 3687, 4159, 4629]","[437, 941, 1390, 1849, 2325, 2800, 3269, 3744, 4215, 4669]","[470, 964, 1442, 1896, 2357, 2825, 3298, 3774, 4247, 4704]","[601, 1088, 1569, 2025, 2494, 2958, 3429, 3909, 4380, 4841]","[369, 821, 1320, 1762, 2206, 2698, 3151, 3647, 4149, 4554]","[677, 1139, 1615, 2066, 2515, 3010, 3463, 3946, 4410, 4870]","[319, 771, 1270, 1712, 2156, 2648, 3101, 3597, 4099, 4504]","[727, 1189, 1665, 2116, 2565, 3060, 3513, 3996, 4460, 4920]","[459, 954, 1432, 1885, 2345, 2813, 3288, 3763, 4236, 4693]"
141,"[211, 576, 963, 1341, 1729, 2116, 2481, 2829, 3162, 3494, 3853, 4252, 4660]","[240, 591, 992, 1361, 1761, 2136, 2517, 2860, 3193, 3523, 3871, 4281, 4687]","[267, 633, 1021, 1401, 1789, 2171, 2537, 2887, 3223, 3555, 3913, 4309, 4719]","[373, 736, 1126, 1508, 1895, 2277, 2643, 2992, 3326, 3657, 4017, 4416, 4824]","[199, 560, 951, 1302, 1719, 2103, 2463, 2812, 3150, 3481, 3837, 4241, 4647]","[400, 767, 1157, 1536, 1925, 2307, 2672, 3020, 3362, 3692, 4045, 4443, 4854]","[149, 510, 901, 1252, 1669, 2053, 2413, 2762, 3100, 3431, 3787, 4191, 4597]","[450, 817, 1207, 1586, 1975, 2357, 2722, 3070, 3412, 3742, 4095, 4493, 4904]","[258, 623, 1011, 1391, 1779, 2161, 2528, 2878, 3214, 3546, 3903, 4300, 4709]"
142,"[256, 620, 979, 1344, 1703, 2065, 2431, 2819, 3309, 3750, 4183, 4613, 4881]","[299, 649, 1035, 1399, 1758, 2118, 2491, 2872, 3359, 3798, 4230, 4663, 4926]","[332, 692, 1057, 1421, 1793, 2142, 2521, 2896, 3382, 3834, 4258, 4684, 4942]","[458, 819, 1172, 1535, 1899, 2258, 2629, 3008, 3494, 3936, 4375, 4806, 4944]","[216, 584, 960, 1327, 1676, 2047, 2412, 2804, 3279, 3725, 4171, 4598, 4842]","[488, 846, 1213, 1584, 1929, 2306, 2638, 3047, 3538, 3981, 4406, 4842, 4986]","[166, 534, 910, 1277, 1626, 1997, 2362, 2754, 3229, 3675, 4121, 4548, 4792]","[538, 896, 1263, 1634, 1979, 2356, 2688, 3097, 3588, 4031, 4456, 4892, 5036]","[327, 687, 1052, 1417, 1776, 2138, 2504, 2891, 3377, 3819, 4253, 4679, 4937]"
143,"[172, 602, 1011, 1401, 1789, 2178, 2576, 2993, 3428, 3874, 4322, 4764]","[221, 653, 1037, 1455, 1836, 2227, 2631, 3010, 3475, 3921, 4371, 4819]","[246, 683, 1093, 1482, 1863, 2253, 2659, 3068, 3504, 3950, 4396, 4844]","[342, 793, 1190, 1573, 1967, 2360, 2759, 3178, 3605, 4047, 4495, nan]","[158, 594, 1001, 1393, 1773, 2168, 2549, 2976, 3394, 3859, 4283, 4756]","[382, 817, 1261, 1657, 2054, 2407, 2780, 3198, 3629, 4143, 4591, nan]","[108, 544, 951, 1343, 1723, 2118, 2499, 2926, 3344, 3809, 4233, 4706]","[432.0, 867.0, 1311.0, 1707.0, 2104.0, 2457.0, 2830.0, 3248.0, 3679.0, 4193.0, 4641.0, nan]","[235, 671, 1080, 1470, 1851, 2241, 2647, 3055, 3491, 3937, 4385, 4833]"
144,"[229, 672, 1113, 1564, 2017, 2474, 2926, 3380, 3839, 4287, 4738]","[272, 711, 1155, 1607, 2061, 2511, 2970, 3423, 3875, 4331, 4781]","[292, 732, 1178, 1630, 2082, 2532, 2990, 3445, 3897, 4352, 4803]","[409, 852, 1297, 1749, 2204, 2649, 3107, 3562, 4014, 4471, 4924]","[203, 644, 1104, 1538, 1983, 2447, 2910, 3356, 3820, 4256, 4710]","[447, 885, 1322, 1782, 2230, 2680, 3139, 3594, 4048, 4503, 4984]","[153, 594, 1054, 1488, 1933, 2397, 2860, 3306, 3770, 4206, 4660]","[497, 935, 1372, 1832, 2280, 2730, 3189, 3644, 4098, 4553, 5034]","[284, 724, 1169, 1621, 2073, 2523, 2981, 3436, 3889, 4343, 4794]"
145,"[163, 691, 1206, 1734, 2254, 2772, 3280, 3784, 4290, 4777]","[209, 738, 1265, 1794, 2312, 2828, 3334, 3838, 4344, 4839]","[264, 790, 1318, 1847, 2365, 2880, 3389, 3885, 4398, 4910]","[343, 878, 1400, 1929, 2452, 2966, 3472, 3972, 4482, nan]","[126, 649, 1190, 1725, 2241, 2737, 3248, 3768, 4271, 4764]","[378, 912, 1434, 1968, 2486, 3001, 3505, 4012, 4516, nan]","[76, 599, 1140, 1675, 2191, 2687, 3198, 3718, 4221, 4714]","[428.0, 962.0, 1484.0, 2018.0, 2536.0, 3051.0, 3555.0, 4062.0, 4566.0, nan]","[227, 754, 1281, 1810, 2330, 2842, 3350, 3852, 4360, 4853]"
146,"[389, 712, 979, 1580, 1897, 2112, 2680, 3016, 3281, 3863, 4433, 4751]","[447, 773, 1036, 1639, 1936, 2171, 2730, 3080, 3339, 3909, 4489, 4815]","[472, 782, 1061, 1665, 1951, 2198, 2767, 3088, 3367, 3936, 4516, 4819]","[589, 882, 1186, 1770, 2112, 2314, 2880, 3105, 3493, 4044, 4619, 4858]","[363, 697, 928, 1538, 1835, 2093, 2647, 3010, 3273, 3851, 4409, 4693]","[643, 928, 1219, 1835, 2132, 2336, 2916, 3174, 3509, 4075, 4675, 4986]","[313, 647, 878, 1488, 1785, 2043, 2597, 2960, 3223, 3801, 4359, 4643]","[693, 978, 1269, 1885, 2182, 2386, 2966, 3224, 3559, 4125, 4725, 5036]","[461, 776, 1051, 1655, 1944, 2186, 2754, 3085, 3358, 3925, 4504, 4818]"
147,"[151, 530, 915, 1296, 1703, 2107, 2516, 2911, 3310, 3699, 4097, 4464, 4860]","[179, 582, 964, 1346, 1722, 2134, 2559, 2932, 3357, 3734, 4143, 4507, 4912]","[230, 614, 994, 1376, 1782, 2185, 2590, 2993, 3387, 3780, 4174, 4559, 4942]","[336, 721, 1109, 1485, 1890, 2295, 2699, 3104, 3497, 3888, 4284, 4676, 4947]","[123, 507, 906, 1265, 1678, 2066, 2505, 2887, 3286, 3690, 4089, 4447, 4850]","[373, 752, 1137, 1521, 1914, 2321, 2740, 3133, 3534, 3922, 4316, 4709, 4986]","[73, 457, 856, 1215, 1628, 2016, 2455, 2837, 3236, 3640, 4039, 4397, 4800]","[423, 802, 1187, 1571, 1964, 2371, 2790, 3183, 3584, 3972, 4366, 4759, 5036]","[215, 599, 981, 1363, 1769, 2172, 2577, 2979, 3374, 3767, 4161, 4546, 4928]"
148,"[298, 674, 1031, 1404, 1827, 2005, 2661, 3046, 3448, 3847, 4259, 4724]","[335, 712, 1071, 1444, 1863, 2097, 2698, 3082, 3483, 3896, 4300, 4763]","[360, 737, 1102, 1470, 1889, 2132, 2723, 3107, 3512, 3919, 4325, 4789]","[478, 853, 1219, 1586, 2005, 2244, 2847, 3220, 3628, 4035, 4441, 4909]","[290, 662, 1023, 1395, 1812, 1978, 2624, 3026, 3413, 3814, 4224, 4714]","[509, 879, 1245, 1619, 2037, 2271, 2877, 3249, 3656, 4065, 4471, 4932]","[240, 612, 973, 1345, 1762, 1928, 2574, 2976, 3363, 3764, 4174, 4664]","[559, 929, 1295, 1669, 2087, 2321, 2927, 3299, 3706, 4115, 4521, 4982]","[349, 725, 1090, 1459, 1877, 2115, 2712, 3095, 3500, 3907, 4313, 4778]"
149,"[182, 550, 916, 1289, 1662, 2042, 2442, 2837, 3255, 3662, 4082, 4503]","[242, 605, 981, 1355, 1726, 2107, 2498, 2902, 3316, 3736, 4150, 4579]","[263, 632, 1004, 1378, 1749, 2126, 2521, 2925, 3339, 3758, 4169, 4630]","[368, 738, 1113, 1486, 1860, 2239, 2628, 3034, 3453, 3869, 4281, 4711]","[146, 538, 907, 1279, 1640, 2011, 2407, 2798, 3203, 3651, 4061, 4493]","[410, 772, 1130, 1511, 1901, 2267, 2655, 3073, 3480, 3897, 4313, 4743]","[96, 488, 857, 1229, 1590, 1961, 2357, 2748, 3153, 3601, 4011, 4443]","[460, 822, 1180, 1561, 1951, 2317, 2705, 3123, 3530, 3947, 4363, 4793]","[252, 618, 992, 1366, 1739, 2118, 2510, 2912, 3331, 3745, 4159, 4591]"
150,"[404, 824, 1255, 1691, 2111, 2541, 2965, 3391, 3810, 4229, 4645]","[454, 881, 1308, 1750, 2180, 2598, 3019, 3441, 3860, 4281, 4698]","[488, 909, 1337, 1782, 2205, 2625, 3047, 3473, 3893, 4309, 4723]","[603, 1035, 1459, 1901, 2323, 2749, 3155, 3596, 4006, 4436, 4845]","[362, 777, 1249, 1645, 2070, 2531, 2897, 3350, 3791, 4206, 4613]","[651, 1072, 1484, 1935, 2371, 2817, 3201, 3627, 4054, 4461, 4867]","[312, 727, 1199, 1595, 2020, 2481, 2847, 3300, 3741, 4156, 4563]","[701, 1122, 1534, 1985, 2421, 2867, 3251, 3677, 4104, 4511, 4917]","[475, 898, 1323, 1765, 2191, 2611, 3032, 3458, 3880, 4295, 4710]"
151,"[303, 700, 1108, 1526, 1930, 2359, 2771, 3180, 3600, 4024, 4453, 4874]","[351, 742, 1123, 1560, 1977, 2397, 2805, 3217, 3647, 4066, 4478, 4912]","[377, 768, 1172, 1585, 2003, 2425, 2841, 3250, 3668, 4093, 4518, 4939]","[481, 878, 1277, 1692, 2109, 2535, 2950, 3352, 3776, 4203, 4631, nan]","[265, 692, 1101, 1476, 1904, 2274, 2762, 3171, 3577, 4013, 4440, 4843]","[513, 899, 1306, 1723, 2135, 2560, 2978, 3387, 3802, 4224, 4653, nan]","[215, 642, 1051, 1426, 1854, 2224, 2712, 3121, 3527, 3963, 4390, 4793]","[563.0, 949.0, 1356.0, 1773.0, 2185.0, 2610.0, 3028.0, 3437.0, 3852.0, 4274.0, 4703.0, nan]","[366, 758, 1162, 1576, 1992, 2415, 2830, 3240, 3658, 4083, 4508, 4929]"
152,"[222, 684, 1142, 1613, 1804, 2084, 2627, 2957, 3118, 3606, 4076, 4601]","[262, 730, 1178, 1657, 1929, 2156, 2657, 2964, 3168, 3641, 4129, 4651]","[296, 756, 1201, 1677, 1942, 2178, 2690, 2970, 3190, 3662, 4158, 4675]","[437, 877, 1321, 1804, 2084, 2292, 2812, 3118, 3315, 3795, 4276, 4821]","[212, 654, 1099, 1553, 1799, 2076, 2569, 2946, 3058, 3599, 4044, 4558]","[445, 894, 1362, 1832, 2125, 2298, 2855, 3146, 3365, 3804, 4285, 4829]","[162, 604, 1049, 1503, 1749, 2026, 2519, 2896, 3008, 3549, 3994, 4508]","[495, 944, 1412, 1882, 2175, 2348, 2905, 3196, 3415, 3854, 4335, 4879]","[288, 746, 1192, 1667, 1936, 2166, 2678, 2966, 3180, 3655, 4144, 4664]"
153,"[269, 792, 1292, 1799, 2285, 2775, 3265, 3781, 4274, 4794]","[329, 832, 1341, 1844, 2309, 2827, 3305, 3810, 4340, 4844]","[355, 859, 1375, 1872, 2362, 2870, 3371, 3851, 4369, 4876]","[460, 969, 1484, 1980, 2474, 2962, 3463, 3965, 4480, 4883]","[183, 699, 1276, 1787, 2230, 2714, 3256, 3742, 4222, 4701]","[496, 1001, 1515, 2013, 2499, 2994, 3493, 4001, 4511, 4982]","[133, 649, 1226, 1737, 2180, 2664, 3206, 3692, 4172, 4651]","[546, 1051, 1565, 2063, 2549, 3044, 3543, 4051, 4561, 5032]","[344, 846, 1360, 1859, 2346, 2843, 3337, 3840, 4356, 4864]"
154,"[348, 629, 925, 1213, 1526, 1834, 2145, 2456, 2765, 3064, 3362, 3663, 3960, 4249, 4549, 4848]","[386, 669, 960, 1257, 1562, 1869, 2180, 2492, 2801, 3104, 3403, 3703, 4000, 4294, 4590, 4888]","[408, 691, 981, 1279, 1584, 1890, 2205, 2514, 2823, 3125, 3424, 3724, 4021, 4316, 4612, 4909]","[502, 787, 1077, 1376, 1683, 1989, 2304, 2609, 2918, 3226, 3523, 3824, 4118, 4411, 4713, 4910]","[272, 539, 900, 1196, 1502, 1810, 2132, 2433, 2739, 3038, 3339, 3641, 3938, 4232, 4539, 4825]","[536, 822, 1113, 1421, 1712, 2026, 2337, 2652, 2960, 3270, 3564, 3850, 4150, 4442, 4752, 4984]","[222, 489, 850, 1146, 1452, 1760, 2082, 2383, 2689, 2988, 3289, 3591, 3888, 4182, 4489, 4775]","[586, 872, 1163, 1471, 1762, 2076, 2387, 2702, 3010, 3320, 3614, 3900, 4200, 4492, 4802, 5034]","[399, 682, 972, 1269, 1574, 1882, 2193, 2505, 2813, 3115, 3415, 3715, 4012, 4307, 4602, 4900]"
155,"[374, 953, 1526, 2090, 2661, 3226, 3805, 4469]","[426, 995, 1560, 2125, 2719, 3279, 3840, 4524]","[453, 1023, 1589, 2153, 2743, 3306, 3888, 4553]","[589, 1157, 1723, 2290, 2878, 3441, 4026, 4689]","[363, 926, 1480, 2075, 2593, 3202, 3794, 4445]","[618, 1196, 1762, 2328, 2914, 3477, 4065, 4721]","[313, 876, 1430, 2025, 2543, 3152, 3744, 4395]","[668, 1246, 1812, 2378, 2964, 3527, 4115, 4771]","[442, 1012, 1577, 2142, 2731, 3295, 3875, 4541]"
156,"[360, 771, 1189, 1617, 2043, 2456, 2876, 3288, 3699, 4124, 4529]","[419, 840, 1256, 1670, 2073, 2523, 2924, 3354, 3767, 4192, 4609]","[444, 863, 1279, 1693, 2119, 2547, 2967, 3378, 3790, 4215, 4631]","[559, 975, 1394, 1804, 2232, 2659, 3081, 3493, 3902, 4330, 4744]","[328, 724, 1180, 1595, 2019, 2438, 2854, 3266, 3691, 4115, 4520]","[583, 1005, 1414, 1832, 2260, 2686, 3104, 3514, 3936, 4354, 4767]","[278, 674, 1130, 1545, 1969, 2388, 2804, 3216, 3641, 4065, 4470]","[633, 1055, 1464, 1882, 2310, 2736, 3154, 3564, 3986, 4404, 4817]","[435, 853, 1268, 1683, 2110, 2537, 2956, 3368, 3781, 4205, 4622]"
157,"[339, 773, 1234, 1696, 2165, 2627, 3093, 3569, 4044, 4508, 4827]","[399, 839, 1292, 1755, 2220, 2685, 3151, 3626, 4101, 4567, 4936]","[427, 872, 1325, 1787, 2252, 2715, 3180, 3656, 4130, 4600, 4943]","[538, 974, 1431, 1891, 2361, 2823, 3297, 3764, 4230, 4712, nan]","[316, 745, 1214, 1671, 2142, 2608, 3074, 3552, 4033, 4499, 4815]","[592, 1032, 1476, 1924, 2397, 2883, 3349, 3816, 4282, 4794, nan]","[266, 695, 1164, 1621, 2092, 2558, 3024, 3502, 3983, 4449, 4765]","[642.0, 1082.0, 1526.0, 1974.0, 2447.0, 2933.0, 3399.0, 3866.0, 4332.0, 4844.0, nan]","[412, 853, 1307, 1767, 2234, 2698, 3164, 3640, 4115, 4581, 4941]"
158,"[190, 600, 1004, 1429, 1842, 2259, 2672, 3087, 3480, 3884, 4285, 4698]","[225, 654, 1059, 1496, 1878, 2313, 2727, 3128, 3536, 3936, 4342, 4767]","[283, 696, 1111, 1537, 1947, 2366, 2780, 3188, 3585, 3979, 4392, 4806]","[368, 788, 1206, 1623, 2039, 2461, 2869, 3274, 3680, 4070, 4480, 4893]","[150, 578, 993, 1419, 1832, 2231, 2663, 3071, 3464, 3865, 4275, 4664]","[421, 822, 1251, 1654, 2075, 2500, 2901, 3314, 3752, 4102, 4523, 4941]","[100, 528, 943, 1369, 1782, 2181, 2613, 3021, 3414, 3815, 4225, 4614]","[471, 872, 1301, 1704, 2125, 2550, 2951, 3364, 3802, 4152, 4573, 4991]","[265, 677, 1093, 1518, 1928, 2348, 2760, 3169, 3565, 3961, 4373, 4787]"
159,"[313, 817, 1270, 1700, 2124, 2603, 3043, 3467, 3908, 4312, 4704]","[415, 853, 1299, 1746, 2190, 2638, 3086, 3526, 3953, 4344, 4738]","[442, 881, 1329, 1759, 2216, 2665, 3114, 3555, 3977, 4374, 4768]","[559, 991, 1438, 1883, 2324, 2765, 3229, 3664, 4089, 4477, 4874]","[289, 803, 1258, 1691, 2114, 2582, 3030, 3425, 3900, 4292, 4635]","[577, 1069, 1477, 1918, 2360, 2822, 3278, 3699, 4121, 4514, 4900]","[239, 753, 1208, 1641, 2064, 2532, 2980, 3375, 3850, 4242, 4585]","[627, 1119, 1527, 1968, 2410, 2872, 3328, 3749, 4171, 4564, 4950]","[430, 865, 1312, 1756, 2199, 2649, 3099, 3541, 3964, 4358, 4749]"
160,"[156, 834, 1507, 2195, 2865, 3573, 4269]","[173, 871, 1551, 2249, 2899, 3629, 4316]","[269, 976, 1601, 2319, 2958, 3708, 4397]","[362, 1037, 1713, 2395, 3090, 3785, 4487]","[-19, 801, 1461, 2178, 2850, 3456, 4256]","[396, 1076, 1756, 2441, 3117, 3826, 4527]","[-69, 751, 1411, 2128, 2800, 3406, 4206]","[446, 1126, 1806, 2491, 3167, 3876, 4577]","[222, 899, 1574, 2267, 2945, 3642, 4352]"
161,"[141, 537, 950, 1364, 1782, 2199, 2601, 2998, 3389, 3770, 4136, 4510, 4877]","[180, 572, 992, 1413, 1824, 2243, 2638, 3039, 3425, 3804, 4180, 4550, 4916]","[218, 613, 1028, 1447, 1867, 2278, 2680, 3074, 3465, 3848, 4219, 4586, nan]","[318, 709, 1119, 1552, 1967, 2380, 2773, 3173, 3563, 3943, 4317, 4682, nan]","[100, 498, 906, 1329, 1749, 2164, 2562, 2952, 3342, 3735, 4100, 4500, 4834]","[343, 741, 1151, 1563, 1998, 2406, 2818, 3207, 3592, 3972, 4336, 4713, nan]","[50, 448, 856, 1279, 1699, 2114, 2512, 2902, 3292, 3685, 4050, 4450, 4784]","[393.0, 791.0, 1201.0, 1613.0, 2048.0, 2456.0, 2868.0, 3257.0, 3642.0, 4022.0, 4386.0, 4763.0, nan]","[199, 595, 1009, 1429, 1847, 2259, 2661, 3056, 3447, 3829, 4198, 4566, 4936]"
162,"[224, 702, 1187, 1624, 2037, 2559, 3045, 3513, 3940, 4407, 4851]","[267, 740, 1240, 1696, 2148, 2628, 3102, 3563, 4003, 4455, 4913]","[295, 776, 1264, 1713, 2173, 2657, 3127, 3595, 4034, 4482, 4941]","[408, 901, 1388, 1825, 2290, 2764, 3243, 3700, 4142, 4593, nan]","[181, 649, 1178, 1552, 2028, 2516, 2976, 3464, 3930, 4382, 4778]","[469, 919, 1425, 1870, 2315, 2796, 3312, 3732, 4195, 4650, nan]","[131, 599, 1128, 1502, 1978, 2466, 2926, 3414, 3880, 4332, 4728]","[519.0, 969.0, 1475.0, 1920.0, 2365.0, 2846.0, 3362.0, 3782.0, 4245.0, 4700.0, nan]","[287, 766, 1254, 1700, 2162, 2642, 3117, 3582, 4021, 4470, 4929]"
163,"[388, 796, 1201, 1593, 1974, 2352, 2717, 3097, 3496, 3894, 4301, 4695]","[461, 870, 1268, 1661, 2044, 2419, 2790, 3171, 3564, 3963, 4364, 4761]","[487, 894, 1289, 1685, 2068, 2443, 2813, 3194, 3586, 3986, 4389, 4790]","[602, 995, 1395, 1790, 2180, 2545, 2913, 3302, 3695, 4088, 4495, 4896]","[379, 773, 1178, 1580, 1939, 2322, 2709, 3076, 3486, 3864, 4267, 4669]","[628, 1038, 1430, 1815, 2194, 2572, 2952, 3340, 3738, 4127, 4542, 4933]","[329, 723, 1128, 1530, 1889, 2272, 2659, 3026, 3436, 3814, 4217, 4619]","[678, 1088, 1480, 1865, 2244, 2622, 3002, 3390, 3788, 4177, 4592, 4983]","[475, 882, 1281, 1673, 2057, 2431, 2802, 3184, 3577, 3975, 4381, 4779]"
164,"[98, 592, 1103, 1624, 2155, 2673, 3173, 3667, 4188, 4701]","[171, 663, 1145, 1677, 2207, 2749, 3232, 3697, 4255, 4781]","[195, 706, 1201, 1720, 2250, 2775, 3267, 3768, 4285, 4801]","[311, 824, 1307, 1838, 2369, 2900, 3382, 3880, 4402, 4932]","[84, 580, 1079, 1596, 2139, 2650, 3144, 3644, 4172, 4679]","[402, 853, 1362, 1873, 2450, 2952, 3442, 3890, 4441, 4983]","[34, 530, 1029, 1546, 2089, 2600, 3094, 3594, 4122, 4629]","[452, 903, 1412, 1923, 2500, 3002, 3492, 3940, 4491, 5033]","[185, 695, 1191, 1710, 2241, 2763, 3258, 3758, 4274, 4792]"
165,"[375, 864, 1354, 1855, 2345, 2846, 3381, 3906, 4404, 4777]","[445, 935, 1425, 1936, 2416, 2913, 3448, 3969, 4474, 4932]","[472, 960, 1453, 1957, 2441, 2939, 3478, 4005, 4505, 4940]","[593, 1094, 1577, 2085, 2562, 3069, 3601, 4120, 4627, 4941]","[361, 852, 1326, 1832, 2316, 2828, 3368, 3888, 4377, 4775]","[655, 1131, 1676, 2130, 2618, 3166, 3645, 4129, 4668, 4982]","[311, 802, 1276, 1782, 2266, 2778, 3318, 3838, 4327, 4725]","[705, 1181, 1726, 2180, 2668, 3216, 3695, 4179, 4718, 5032]","[463, 951, 1442, 1948, 2432, 2931, 3470, 3995, 4492, 4937]"
166,"[456, 952, 1445, 1961, 2487, 3003, 3520, 4011, 4473, 4776]","[492, 1005, 1470, 1987, 2532, 3067, 3583, 4033, 4513, 4889]","[538, 1034, 1525, 2036, 2565, 3094, 3607, 4086, 4551, 4923]","[651, 1141, 1634, 2144, 2676, 3199, 3719, 4195, 4659, 4939]","[401, 941, 1405, 1899, 2416, 2976, 3508, 3958, 4458, 4766]","[691, 1183, 1685, 2181, 2712, 3245, 3755, 4227, 4698, 4982]","[351, 891, 1355, 1849, 2366, 2926, 3458, 3908, 4408, 4716]","[741, 1233, 1735, 2231, 2762, 3295, 3805, 4277, 4748, 5032]","[527, 1020, 1513, 2022, 2550, 3080, 3596, 4073, 4538, 4914]"
167,"[107, 674, 1252, 1864, 2445, 3015, 3619, 4186, 4774]","[151, 735, 1314, 1907, 2494, 3074, 3669, 4244, 4827]","[208, 791, 1341, 1967, 2519, 3146, 3693, 4266, 4852]","[302, 890, 1474, 2062, 2651, 3229, 3825, 4398, 4857]","[-42, 621, 1158, 1786, 2406, 2946, 3584, 4161, 4653]","[342, 919, 1496, 2096, 2690, 3270, 3857, 4431, 4980]","[-92, 571, 1108, 1736, 2356, 2896, 3534, 4111, 4603]","[392, 969, 1546, 2146, 2740, 3320, 3907, 4481, 5030]","[163, 747, 1329, 1927, 2508, 3092, 3682, 4257, 4841]"
168,"[410, 851, 1302, 1770, 2284, 2750, 3219, 3692, 4182, 4648]","[424, 907, 1372, 1851, 2354, 2829, 3265, 3774, 4189, 4710]","[513, 950, 1403, 1880, 2378, 2857, 3324, 3807, 4277, 4748]","[620, 1060, 1518, 1990, 2494, 2964, 3432, 3915, 4395, 4865]","[401, 824, 1274, 1758, 2255, 2702, 3202, 3681, 4151, 4609]","[701, 1099, 1561, 2021, 2598, 3002, 3464, 3951, 4455, 4877]","[351, 774, 1224, 1708, 2205, 2652, 3152, 3631, 4101, 4559]","[751, 1149, 1611, 2071, 2648, 3052, 3514, 4001, 4505, 4927]","[496, 937, 1391, 1867, 2367, 2843, 3311, 3787, 4262, 4736]"
169,"[216, 733, 1225, 1740, 2223, 2735, 3245, 3756, 4274, 4821]","[292, 787, 1292, 1798, 2294, 2803, 3314, 3824, 4345, 4889]","[345, 835, 1335, 1831, 2328, 2837, 3349, 3872, 4390, nan]","[436, 934, 1437, 1942, 2439, 2953, 3460, 3971, 4492, nan]","[191, 685, 1188, 1698, 2193, 2722, 3219, 3720, 4247, 4791]","[505, 977, 1488, 1990, 2508, 2989, 3500, 4005, 4563, nan]","[141, 635, 1138, 1648, 2143, 2672, 3169, 3670, 4197, 4741]","[555.0, 1027.0, 1538.0, 2040.0, 2558.0, 3039.0, 3550.0, 4055.0, 4613.0, nan]","[307, 804, 1307, 1813, 2310, 2819, 3330, 3839, 4361, 4906]"
170,"[361, 705, 1068, 1423, 1780, 2121, 2468, 2835, 3172, 3523, 3876, 4221, 4584, 4903]","[396, 744, 1103, 1438, 1799, 2154, 2516, 2860, 3222, 3578, 3903, 4256, 4618, 4908]","[422, 770, 1129, 1487, 1844, 2196, 2543, 2894, 3248, 3602, 3953, 4297, 4643, 4933]","[530, 880, 1236, 1593, 1954, 2306, 2651, 3003, 3359, 3711, 4064, 4409, 4750, 4941]","[336, 691, 1052, 1369, 1742, 2104, 2447, 2774, 3154, 3486, 3849, 4210, 4534, 4779]","[558, 907, 1261, 1625, 1983, 2339, 2678, 3029, 3381, 3738, 4086, 4438, 4779, 4983]","[286, 641, 1002, 1319, 1692, 2054, 2397, 2724, 3104, 3436, 3799, 4160, 4484, 4729]","[608, 957, 1311, 1675, 2033, 2389, 2728, 3079, 3431, 3788, 4136, 4488, 4829, 5033]","[412, 760, 1118, 1476, 1834, 2186, 2532, 2884, 3238, 3590, 3939, 4287, 4633, 4929]"
171,"[500, 1024, 1569, 2104, 2621, 3155, 3720, 4289, 4836]","[568, 1092, 1638, 2168, 2683, 3221, 3790, 4357, 4905]","[597, 1120, 1671, 2196, 2713, 3251, 3819, 4385, 4937]","[705, 1231, 1779, 2310, 2824, 3365, 3927, 4493, nan]","[484, 1011, 1556, 2093, 2519, 3141, 3700, 4272, 4824]","[737, 1260, 1806, 2340, 2848, 3392, 3962, 4525, nan]","[434, 961, 1506, 2043, 2469, 3091, 3650, 4222, 4774]","[787.0, 1310.0, 1856.0, 2390.0, 2898.0, 3442.0, 4012.0, 4575.0, nan]","[581, 1105, 1652, 2181, 2696, 3236, 3804, 4370, 4918]"
172,"[228, 694, 1158, 1659, 2131, 2578, 3068, 3569, 4035, 4504, 4790]","[284, 736, 1209, 1690, 2166, 2630, 3108, 3605, 4084, 4538, 4908]","[315, 775, 1240, 1727, 2198, 2661, 3143, 3638, 4120, 4572, 4926]","[419, 881, 1349, 1841, 2304, 2769, 3255, 3751, 4234, 4679, 4943]","[215, 677, 1147, 1623, 2093, 2555, 2998, 3533, 3993, 4496, 4773]","[470, 914, 1386, 1873, 2341, 2804, 3295, 3780, 4266, 4723, 4984]","[165, 627, 1097, 1573, 2043, 2505, 2948, 3483, 3943, 4446, 4723]","[520, 964, 1436, 1923, 2391, 2854, 3345, 3830, 4316, 4773, 5034]","[299, 756, 1226, 1712, 2182, 2647, 3129, 3621, 4106, 4556, 4924]"
173,"[104, 513, 935, 1376, 1864, 2356, 2818, 3258, 3696, 4128, 4570, 4880]","[141, 555, 970, 1408, 1896, 2386, 2852, 3296, 3730, 4155, 4594, 4883]","[168, 605, 989, 1456, 1943, 2441, 2881, 3340, 3757, 4212, 4639, 4929]","[279, 694, 1098, 1545, 2041, 2535, 2996, 3450, 3877, 4303, 4739, 4932]","[80, 501, 907, 1368, 1816, 2328, 2807, 3237, 3671, 4068, 4497, 4778]","[319, 748, 1107, 1593, 2107, 2579, 3040, 3492, 3901, 4343, 4776, 4985]","[30, 451, 857, 1318, 1766, 2278, 2757, 3187, 3621, 4018, 4447, 4728]","[369, 798, 1157, 1643, 2157, 2629, 3090, 3542, 3951, 4393, 4826, 5035]","[154, 569, 986, 1423, 1912, 2402, 2867, 3311, 3743, 4171, 4612, 4919]"
174,"[566, 1016, 1586, 2143, 2654, 3140, 3591, 3901, 4527, 4813]","[586, 1111, 1624, 2159, 2689, 3185, 3626, 4051, 4571, 4927]","[634, 1146, 1673, 2201, 2725, 3215, 3658, 4075, 4599, 4945]","[758, 1262, 1797, 2328, 2865, 3333, 3781, 4193, 4724, 4947]","[462, 998, 1578, 2094, 2629, 3130, 3558, 3896, 4507, 4782]","[829, 1310, 1868, 2364, 2891, 3411, 3870, 4235, 4782, 4982]","[412, 948, 1528, 2044, 2579, 3080, 3508, 3846, 4457, 4732]","[879, 1360, 1918, 2414, 2941, 3461, 3920, 4285, 4832, 5032]","[621, 1130, 1649, 2188, 2717, 3205, 3640, 4065, 4588, 4935]"
175,"[288, 793, 1276, 1767, 2251, 2753, 3258, 3728, 4228, 4710]","[323, 831, 1327, 1815, 2295, 2798, 3301, 3782, 4263, 4755]","[374, 874, 1380, 1869, 2345, 2865, 3356, 3823, 4319, 4803]","[473, 972, 1473, 1959, 2447, 2938, 3440, 3924, 4411, 4898]","[249, 725, 1255, 1744, 2181, 2700, 3230, 3715, 4216, 4678]","[506, 1003, 1499, 1985, 2461, 2978, 3474, 3953, 4447, 4982]","[199, 675, 1205, 1694, 2131, 2650, 3180, 3665, 4166, 4628]","[556, 1053, 1549, 2035, 2511, 3028, 3524, 4003, 4497, 5032]","[352, 848, 1345, 1831, 2313, 2814, 3317, 3798, 4281, 4773]"
176,"[410, 878, 1339, 1830, 2320, 2798, 3256, 3717, 4184, 4650]","[462, 927, 1400, 1893, 2384, 2862, 3315, 3772, 4240, 4705]","[486, 960, 1424, 1916, 2409, 2885, 3341, 3798, 4265, 4731]","[585, 1055, 1519, 2011, 2506, 2984, 3436, 3898, 4364, 4838]","[383, 855, 1328, 1769, 2303, 2763, 3223, 3693, 4168, 4630]","[630, 1085, 1561, 2043, 2545, 3015, 3481, 3940, 4409, 4871]","[333, 805, 1278, 1719, 2253, 2713, 3173, 3643, 4118, 4580]","[680, 1135, 1611, 2093, 2595, 3065, 3531, 3990, 4459, 4921]","[474, 945, 1414, 1906, 2398, 2875, 3329, 3786, 4255, 4720]"
177,"[160, 678, 1217, 1726, 2238, 2755, 3256, 3795, 4334, 4803]","[231, 749, 1262, 1780, 2290, 2804, 3319, 3852, 4406, 4889]","[271, 775, 1308, 1825, 2329, 2849, 3367, 3937, 4446, 4901]","[368, 889, 1407, 1928, 2434, 2952, 3458, 3992, 4549, 4903]","[147, 663, 1180, 1695, 2227, 2718, 3242, 3759, 4318, 4770]","[406, 924, 1446, 1963, 2477, 2987, 3505, 4032, 4588, 4982]","[97, 613, 1130, 1645, 2177, 2668, 3192, 3709, 4268, 4720]","[456, 974, 1496, 2013, 2527, 3037, 3555, 4082, 4638, 5032]","[243, 762, 1279, 1795, 2305, 2821, 3335, 3866, 4419, 4893]"
178,"[281, 652, 1083, 1452, 1840, 2213, 2611, 2975, 3365, 3772, 4196, 4610]","[339, 754, 1144, 1525, 1899, 2275, 2653, 3036, 3423, 3827, 4248, 4662]","[380, 774, 1168, 1562, 1935, 2309, 2686, 3060, 3447, 3868, 4281, 4702]","[484, 874, 1263, 1660, 2034, 2404, 2782, 3165, 3549, 3956, 4376, 4797]","[234, 634, 1045, 1443, 1821, 2174, 2560, 2964, 3314, 3755, 4175, 4578]","[506, 914, 1270, 1693, 2073, 2438, 2813, 3185, 3580, 3994, 4396, 4813]","[184, 584, 995, 1393, 1771, 2124, 2510, 2914, 3264, 3705, 4125, 4528]","[556, 964, 1320, 1743, 2123, 2488, 2863, 3235, 3630, 4044, 4446, 4863]","[358, 763, 1159, 1540, 1914, 2290, 2667, 3049, 3438, 3842, 4260, 4678]"
179,"[181, 659, 1152, 1610, 2082, 2568, 3032, 3508, 3985, 4460, 4807]","[236, 714, 1194, 1667, 2138, 2616, 3088, 3564, 4046, 4520, 4898]","[266, 745, 1226, 1701, 2169, 2648, 3121, 3595, 4076, 4554, 4935]","[391, 879, 1349, 1820, 2295, 2775, 3245, 3719, 4196, 4675, 4937]","[151, 572, 1112, 1588, 2071, 2531, 3020, 3497, 3943, 4435, 4793]","[442, 900, 1381, 1868, 2329, 2812, 3286, 3800, 4233, 4703, 4985]","[101, 522, 1062, 1538, 2021, 2481, 2970, 3447, 3893, 4385, 4743]","[492, 950, 1431, 1918, 2379, 2862, 3336, 3850, 4283, 4753, 5035]","[248, 727, 1208, 1681, 2152, 2630, 3101, 3577, 4059, 4534, 4932]"
180,"[423, 953, 1482, 1971, 2500, 2998, 3466, 3929, 4414, 4854]","[481, 1018, 1534, 2020, 2560, 3059, 3534, 4002, 4452, 4863]","[506, 1040, 1563, 2067, 2582, 3089, 3557, 4025, 4502, 4885]","[635, 1174, 1703, 2203, 2715, 3219, 3693, 4156, 4635, 4895]","[322, 910, 1447, 1933, 2476, 2980, 3444, 3889, 4382, 4825]","[670, 1214, 1728, 2232, 2740, 3265, 3733, 4192, 4663, 4983]","[272, 860, 1397, 1883, 2426, 2930, 3394, 3839, 4332, 4775]","[720, 1264, 1778, 2282, 2790, 3315, 3783, 4242, 4713, 5033]","[492, 1028, 1551, 2056, 2570, 3074, 3545, 4013, 4491, 4882]"
181,"[116, 769, 1389, 1979, 2625, 3218, 3712, 4499]","[173, 812, 1431, 2074, 2664, 3280, 3893, 4540]","[205, 846, 1464, 2108, 2708, 3311, 3922, 4574]","[334, 964, 1592, 2232, 2834, 3438, 4054, 4701]","[-32, 737, 1344, 1959, 2612, 3099, 3703, 4451]","[386, 1034, 1616, 2267, 2871, 3484, 4095, 4729]","[-82, 687, 1294, 1909, 2562, 3049, 3653, 4401]","[436, 1084, 1666, 2317, 2921, 3534, 4145, 4779]","[187, 827, 1446, 2091, 2696, 3295, 3909, 4557]"
182,"[422, 822, 1215, 1625, 2043, 2432, 2793, 3159, 3559, 4028, 4495, 4872]","[477, 871, 1270, 1678, 2089, 2480, 2836, 3202, 3607, 4082, 4540, 4914]","[507, 902, 1297, 1708, 2117, 2506, 2866, 3232, 3635, 4112, 4568, 4928]","[621, 1017, 1410, 1820, 2230, 2620, 2978, 3338, 3753, 4221, 4682, 4934]","[411, 794, 1208, 1587, 1981, 2399, 2762, 3122, 3539, 4013, 4477, 4848]","[645, 1035, 1446, 1852, 2264, 2640, 3022, 3375, 3782, 4250, 4708, 4987]","[361, 744, 1158, 1537, 1931, 2349, 2712, 3072, 3489, 3963, 4427, 4798]","[695, 1085, 1496, 1902, 2314, 2690, 3072, 3425, 3832, 4300, 4758, 5037]","[494, 885, 1284, 1693, 2103, 2493, 2852, 3217, 3621, 4097, 4556, 4924]"
183,"[263, 628, 1008, 1392, 1785, 2163, 2538, 2903, 3266, 3624, 3991, 4341, 4710]","[307, 680, 1059, 1443, 1830, 2215, 2591, 2956, 3317, 3675, 4031, 4392, 4763]","[332, 705, 1085, 1470, 1855, 2240, 2616, 2981, 3343, 3702, 4057, 4419, 4788]","[424, 795, 1175, 1561, 1946, 2332, 2707, 3073, 3438, 3791, 4150, 4509, 4881]","[228, 601, 996, 1380, 1751, 2136, 2525, 2878, 3249, 3608, 3961, 4232, 4685]","[454, 846, 1211, 1592, 1995, 2381, 2744, 3104, 3468, 3824, 4184, 4542, 4982]","[178, 551, 946, 1330, 1701, 2086, 2475, 2828, 3199, 3558, 3911, 4182, 4635]","[504, 896, 1261, 1642, 2045, 2431, 2794, 3154, 3518, 3874, 4234, 4592, 5032]","[321, 694, 1073, 1458, 1843, 2228, 2605, 2969, 3331, 3691, 4046, 4407, 4777]"
184,"[271, 662, 1083, 1470, 1880, 2294, 2725, 3151, 3583, 3990, 4068, 4406, 4818]","[332, 728, 1131, 1533, 1941, 2359, 2790, 3215, 3640, 4052, 4220, 4466, 4879]","[365, 758, 1160, 1564, 1973, 2392, 2822, 3246, 3671, 4081, 4230, 4497, 4913]","[467, 863, 1262, 1667, 2074, 2493, 2925, 3346, 3774, 4225, 4235, 4601, 4918]","[236, 636, 1027, 1440, 1851, 2283, 2699, 3123, 3545, 3960, 4053, 4370, 4803]","[495, 897, 1296, 1697, 2108, 2526, 2959, 3389, 3806, 4237, 4247, 4633, 4982]","[186, 586, 977, 1390, 1801, 2233, 2649, 3073, 3495, 3910, 4003, 4320, 4753]","[545, 947, 1346, 1747, 2158, 2576, 3009, 3439, 3856, 4287, 4297, 4683, 5032]","[349, 744, 1147, 1549, 1957, 2375, 2805, 3231, 3657, 4068, 4225, 4483, 4897]"
